1,-131
2,-133
3,-134
4,-128
5,-117
6,-102
7,-79
8,-51
9,-12
10,36
11,86
12,116
13,131
14,137
15,131
16,113
17,95
18,65
19,53
20,44
21,40
22,39
23,39
24,29
25,8
26,-15
27,-45
28,-55
29,-43
30,-18
31,-4
32,-10
33,-37
34,-76
35,-103
36,-114
37,-114
38,-114
39,-114
40,-125
41,-135
42,-144
43,-140
44,-138
45,-134
46,-138
47,-136
48,-135
49,-140
50,-143
51,-140
52,-137
53,-136
54,-140
55,-138
56,-145
57,-144
58,-143
59,-140
60,-140
61,-140
62,-143
63,-143
64,-145
65,-147
66,-152
67,-152
68,-151
69,-152
70,-151
71,-148
72,-149
73,-151
74,-147
75,-149
76,-153
77,-156
78,-154
79,-154
80,-156
81,-156
82,-161
83,-163
84,-163
85,-156
86,-156
87,-154
88,-149
89,-150
90,-149
91,-153
92,-152
93,-149
94,-153
95,-142
96,-139
97,-138
98,-135
99,-138
100,-140
101,-141
102,-137
103,-132
104,-131
105,-124
106,-119
107,-114
108,-113
109,-108
110,-118
111,-119
112,-115
113,-115
114,-113
115,-108
116,-109
117,-106
118,-107
119,-109
120,-111
121,-108
122,-110
123,-106
124,-107
125,-107
126,-109
127,-115
128,-115
129,-116
130,-114
131,-113
132,-107
133,-110
134,-112
135,-114
136,-116
137,-114
138,-116
139,-117
140,-119
141,-116
142,-112
143,-113
144,-111
145,-108
146,-113
147,-114
148,-117
149,-113
150,-113
151,-112
152,-110
153,-109
154,-107
155,-110
156,-112
157,-109
158,-113
159,-107
160,-103
161,-105
162,-107
163,-104
164,-102
165,-98
166,-96
167,-100
168,-89
169,-85
170,-83
171,-76
172,-73
173,-71
174,-65
175,-68
176,-66
177,-64
178,-59
179,-61
180,-62
181,-66
182,-71
183,-76
184,-80
185,-82
186,-88
187,-87
188,-85
189,-88
190,-85
191,-88
192,-90
193,-101
194,-106
195,-111
196,-112
197,-111
198,-110
199,-106
200,-111
201,-110
202,-110
203,-116
204,-119
205,-116
206,-118
207,-116
208,-108
209,-110
210,-115
211,-113
212,-112
213,-110
214,-112
215,-110
216,-111
217,-108
218,-105
219,-96
220,-82
221,-61
222,-22
223,24
224,79
225,127
226,152
227,163
228,166
229,154
230,135
231,111
232,89
233,69
234,66
235,65
236,65
237,61
238,43
239,22
240,-8
241,-28
242,-20
243,1
244,28
245,32
246,10
247,-35
248,-71
249,-93
250,-102
251,-98
252,-98
253,-103
254,-115
255,-128
256,-130
257,-130
258,-130
259,-129
260,-129
261,-130
262,-128
263,-125
264,-121
265,-123
266,-125
267,-128
268,-128
269,-132
270,-131
271,-130
272,-124
273,-125
274,-123
275,-125
276,-125
277,-133
278,-134
279,-136
280,-135
281,-133
282,-132
283,-135
284,-137
285,-141
286,-141
287,-141
288,-140
289,-145
290,-142
291,-137
292,-137
293,-140
294,-146
295,-146
296,-152
297,-153
298,-151
299,-149
300,-148
301,-149
302,-146
303,-146
304,-148
305,-146
306,-147
307,-146
308,-141
309,-137
310,-138
311,-136
312,-138
313,-139
314,-135
315,-135
316,-134
317,-126
318,-122
319,-116
320,-116
321,-115
322,-114
323,-111
324,-108
325,-107
326,-102
327,-100
328,-99
329,-101
330,-103
331,-100
332,-102
333,-100
334,-103
335,-95
336,-95
337,-101
338,-101
339,-108
340,-106
341,-104
342,-105
343,-109
344,-107
345,-107
346,-100
347,-104
348,-112
349,-110
350,-113
351,-113
352,-111
353,-112
354,-112
355,-110
356,-110
357,-112
358,-117
359,-116
360,-115
361,-116
362,-115
363,-112
364,-113
365,-110
366,-114
367,-113
368,-118
369,-115
370,-117
371,-117
372,-116
373,-115
374,-117
375,-112
376,-116
377,-118
378,-112
379,-111
380,-110
381,-101
382,-98
383,-96
384,-94
385,-91
386,-88
387,-89
388,-85
389,-79
390,-76
391,-75
392,-73
393,-70
394,-71
395,-78
396,-80
397,-84
398,-82
399,-90
400,-96
401,-100
402,-106
403,-106
404,-108
405,-112
406,-114
407,-115
408,-117
409,-120
410,-128
411,-128
412,-130
413,-134
414,-133
415,-134
416,-136
417,-131
418,-132
419,-135
420,-128
421,-133
422,-136
423,-133
424,-138
425,-137
426,-138
427,-137
428,-137
429,-143
430,-140
431,-136
432,-134
433,-127
434,-115
435,-97
436,-70
437,-29
438,20
439,67
440,105
441,124
442,131
443,135
444,120
445,101
446,75
447,56
448,45
449,38
450,37
451,33
452,20
453,3
454,-15
455,-41
456,-60
457,-48
458,-25
459,-7
460,-5
461,-38
462,-82
463,-118
464,-128
465,-128
466,-126
467,-124
468,-136
469,-148
470,-159
471,-159
472,-156
473,-155
474,-159
475,-157
476,-153
477,-155
478,-156
479,-159
480,-159
481,-156
482,-156
483,-152
484,-155
485,-155
486,-159
487,-163
488,-160
489,-158
490,-158
491,-160
492,-165
493,-162
494,-165
495,-167
496,-169
497,-168
498,-164
499,-163
500,-159
501,-162
502,-167
503,-173
504,-173
505,-177
506,-177
507,-176
508,-174
509,-175
510,-170
511,-169
512,-175
513,-174
514,-177
515,-179
516,-184
517,-180
518,-175
519,-171
520,-169
521,-168
522,-174
523,-168
524,-168
525,-170
526,-168
527,-167
528,-165
529,-160
530,-161
531,-161
532,-157
533,-156
534,-150
535,-142
536,-138
537,-138
538,-134
539,-135
540,-138
541,-135
542,-141
543,-141
544,-135
545,-137
546,-135
547,-131
548,-136
549,-137
550,-138
551,-137
552,-139
553,-134
554,-135
555,-137
556,-141
557,-141
558,-138
559,-138
560,-139
561,-137
562,-141
563,-142
564,-138
565,-135
566,-137
567,-136
568,-138
569,-139
570,-142
571,-136
572,-137
573,-133
574,-132
575,-137
576,-136
577,-137
578,-134
579,-130
580,-128
581,-128
582,-125
583,-125
584,-125
585,-123
586,-126
587,-130
588,-132
589,-126
590,-121
591,-115
592,-107
593,-103
594,-104
595,-103
596,-99
597,-89
598,-87
599,-87
600,-78
601,-75
602,-77
603,-74
604,-75
605,-77
606,-85
607,-87
608,-91
609,-94
610,-97
611,-94
612,-99
613,-104
614,-106
615,-110
616,-111
617,-112
618,-113
619,-119
620,-121
621,-121
622,-128
623,-125
624,-125
625,-128
626,-125
627,-120
628,-117
629,-120
630,-117
631,-120
632,-124
633,-126
634,-126
635,-123
636,-123
637,-116
638,-111
639,-112
640,-114
641,-111
642,-107
643,-103
644,-85
645,-64
646,-36
647,6
648,57
649,101
650,144
651,164
652,173
653,175
654,169
655,143
656,118
657,100
658,89
659,80
660,79
661,74
662,61
663,40
664,13
665,-11
666,-24
667,-11
668,13
669,24
670,19
671,-14
672,-55
673,-87
674,-96
675,-92
676,-90
677,-95
678,-103
679,-121
680,-122
681,-124
682,-119
683,-119
684,-117
685,-118
686,-118
687,-114
688,-119
689,-117
690,-118
691,-115
692,-114
693,-117
694,-118
695,-121
696,-125
697,-123
698,-125
699,-120
700,-126
701,-122
702,-126
703,-121
704,-122
705,-123
706,-127
707,-132
708,-130
709,-132
710,-128
711,-130
712,-133
713,-134
714,-134
715,-136
716,-137
717,-134
718,-136
719,-134
720,-134
721,-132
722,-135
723,-145
724,-145
725,-145
726,-145
727,-137
728,-134
729,-132
730,-131
731,-131
732,-134
733,-135
734,-132
735,-131
736,-126
737,-121
738,-119
739,-115
740,-116
741,-110
742,-109
743,-104
744,-99
745,-95
746,-88
747,-85
748,-83
749,-79
750,-81
751,-82
752,-80
753,-83
754,-83
755,-77
756,-76
757,-73
758,-77
759,-79
760,-81
761,-78
762,-80
763,-82
764,-75
765,-77
766,-74
767,-74
768,-77
769,-74
770,-75
771,-79
772,-85
773,-84
774,-82
775,-83
776,-84
777,-83
778,-84
779,-84
780,-83
781,-81
782,-83
783,-77
784,-76
785,-80
786,-80
787,-81
788,-81
789,-82
790,-80
791,-81
792,-79
793,-77
794,-73
795,-73
796,-77
797,-79
798,-78
799,-76
800,-78
801,-76
802,-75
803,-74
804,-74
805,-70
806,-69
807,-67
808,-61
809,-56
810,-52
811,-48
812,-43
813,-42
814,-37
815,-35
816,-32
817,-34
818,-31
819,-31
820,-34
821,-38
822,-38
823,-46
824,-54
825,-57
826,-59
827,-62
828,-58
829,-58
830,-63
831,-63
832,-65
833,-70
834,-77
835,-78
836,-80
837,-82
838,-82
839,-82
840,-80
841,-81
842,-87
843,-86
844,-89
845,-84
846,-82
847,-75
848,-79
849,-77
850,-82
851,-84
852,-87
853,-87
854,-82
855,-79
856,-76
857,-72
858,-65
859,-56
860,-46
861,-24
862,11
863,55
864,105
865,150
866,174
867,188
868,188
869,176
870,157
871,135
872,115
873,106
874,101
875,100
876,100
877,95
878,77
879,59
880,33
881,10
882,10
883,34
884,54
885,61
886,41
887,-3
888,-43
889,-66
890,-74
891,-72
892,-74
893,-77
894,-86
895,-94
896,-96
897,-102
898,-101
899,-96
900,-100
901,-101
902,-103
903,-100
904,-101
905,-101
906,-101
907,-105
908,-102
909,-101
910,-104
911,-98
912,-100
913,-99
914,-99
915,-102
916,-107
917,-109
918,-112
919,-111
920,-109
921,-106
922,-109
923,-110
924,-113
925,-114
926,-114
927,-117
928,-115
929,-117
930,-119
931,-118
932,-115
933,-119
934,-118
935,-119
936,-125
937,-126
938,-126
939,-124
940,-125
941,-123
942,-123
943,-122
944,-119
945,-121
946,-120
947,-115
948,-115
949,-116
950,-116
951,-116
952,-111
953,-109
954,-106
955,-104
956,-100
957,-98
958,-99
959,-96
960,-93
961,-92
962,-91
963,-89
964,-86
965,-80
966,-79
967,-76
968,-75
969,-73
970,-79
971,-76
972,-75
973,-76
974,-77
975,-79
976,-76
977,-77
978,-77
979,-78
980,-83
981,-81
982,-82
983,-81
984,-82
985,-77
986,-82
987,-85
988,-88
989,-86
990,-93
991,-86
992,-87
993,-84
994,-82
995,-88
996,-89
997,-92
998,-93
999,-92
1000,-95
1001,-92
1002,-93
1003,-91
1004,-91
1005,-86
1006,-91
1007,-90
1008,-91
1009,-93
1010,-92
1011,-84
1012,-88
1013,-85
1014,-89
1015,-87
1016,-88
1017,-87
1018,-85
1019,-84
1020,-84
1021,-75
1022,-70
1023,-71
1024,-68
1025,-66
1026,-62
1027,-54
1028,-55
1029,-46
1030,-42
1031,-40
1032,-36
1033,-42
1034,-50
1035,-52
1036,-53
1037,-64
1038,-61
1039,-61
1040,-64
1041,-64
1042,-65
1043,-70
1044,-73
1045,-73
1046,-77
1047,-80
1048,-84
1049,-91
1050,-96
1051,-94
1052,-93
1053,-91
1054,-93
1055,-95
1056,-92
1057,-92
1058,-90
1059,-94
1060,-95
1061,-95
1062,-98
1063,-95
1064,-94
1065,-92
1066,-87
1067,-89
1068,-87
1069,-89
1070,-88
1071,-90
1072,-85
1073,-77
1074,-66
1075,-47
1076,-17
1077,21
1078,71
1079,118
1080,147
1081,166
1082,173
1083,170
1084,158
1085,144
1086,118
1087,101
1088,91
1089,91
1090,86
1091,89
1092,85
1093,63
1094,46
1095,25
1096,16
1097,31
1098,54
1099,73
1100,64
1101,32
1102,-8
1103,-43
1104,-55
1105,-58
1106,-62
1107,-67
1108,-80
1109,-92
1110,-100
1111,-103
1112,-98
1113,-95
1114,-92
1115,-89
1116,-91
1117,-95
1118,-93
1119,-96
1120,-99
1121,-95
1122,-93
1123,-92
1124,-93
1125,-92
1126,-97
1127,-96
1128,-96
1129,-93
1130,-94
1131,-95
1132,-102
1133,-104
1134,-104
1135,-104
1136,-104
1137,-106
1138,-110
1139,-111
1140,-111
1141,-109
1142,-112
1143,-112
1144,-115
1145,-117
1146,-119
1147,-115
1148,-120
1149,-117
1150,-115
1151,-114
1152,-114
1153,-116
1154,-117
1155,-118
1156,-118
1157,-122
1158,-119
1159,-115
1160,-111
1161,-110
1162,-111
1163,-111
1164,-113
1165,-113
1166,-108
1167,-109
1168,-104
1169,-101
1170,-98
1171,-100
1172,-92
1173,-91
1174,-90
1175,-87
1176,-85
1177,-77
1178,-79
1179,-77
1180,-78
1181,-77
1182,-77
1183,-79
1184,-77
1185,-74
1186,-74
1187,-71
1188,-73
1189,-71
1190,-72
1191,-75
1192,-77
1193,-76
1194,-77
1195,-83
1196,-81
1197,-80
1198,-81
1199,-84
1200,-88
1201,-87
1202,-89
1203,-92
1204,-90
1205,-91
1206,-88
1207,-89
1208,-89
1209,-94
1210,-92
1211,-97
1212,-95
1213,-92
1214,-88
1215,-92
1216,-97
1217,-101
1218,-101
1219,-100
1220,-99
1221,-97
1222,-94
1223,-94
1224,-93
1225,-92
1226,-95
1227,-97
1228,-99
1229,-98
1230,-96
1231,-99
1232,-91
1233,-91
1234,-88
1235,-88
1236,-84
1237,-83
1238,-82
1239,-72
1240,-72
1241,-69
1242,-65
1243,-59
1244,-62
1245,-60
1246,-61
1247,-55
1248,-52
1249,-49
1250,-52
1251,-60
1252,-64
1253,-69
1254,-75
1255,-75
1256,-77
1257,-77
1258,-82
1259,-83
1260,-81
1261,-85
1262,-86
1263,-93
1264,-98
1265,-102
1266,-106
1267,-109
1268,-104
1269,-100
1270,-102
1271,-106
1272,-105
1273,-105
1274,-102
1275,-105
1276,-107
1277,-103
1278,-102
1279,-103
1280,-104
1281,-100
1282,-103
1283,-102
1284,-99
1285,-98
1286,-92
1287,-89
1288,-86
1289,-79
1290,-71
1291,-54
1292,-21
1293,21
1294,75
1295,124
1296,158
1297,174
1298,172
1299,165
1300,149
1301,126
1302,102
1303,84
1304,75
1305,73
1306,74
1307,76
1308,64
1309,44
1310,18
1311,-12
1312,-23
1313,-8
1314,19
1315,40
1316,38
1317,4
1318,-39
1319,-76
1320,-85
1321,-81
1322,-77
1323,-77
1324,-88
1325,-97
1326,-104
1327,-105
1328,-108
1329,-105
1330,-104
1331,-97
1332,-101
1333,-96
1334,-97
1335,-100
1336,-101
1337,-104
1338,-104
1339,-104
1340,-102
1341,-102
1342,-95
1343,-97
1344,-98
1345,-96
1346,-101
1347,-103
1348,-107
1349,-110
1350,-109
1351,-107
1352,-106
1353,-103
1354,-106
1355,-106
1356,-109
1357,-112
1358,-111
1359,-110
1360,-104
1361,-107
1362,-105
1363,-107
1364,-109
1365,-110
1366,-116
1367,-118
1368,-113
1369,-113
1370,-116
1371,-109
1372,-115
1373,-113
1374,-113
1375,-115
1376,-112
1377,-109
1378,-102
1379,-103
1380,-101
1381,-102
1382,-101
1383,-102
1384,-99
1385,-95
1386,-89
1387,-88
1388,-91
1389,-88
1390,-86
1391,-78
1392,-77
1393,-74
1394,-74
1395,-68
1396,-66
1397,-68
1398,-68
1399,-71
1400,-68
1401,-65
1402,-67
1403,-64
1404,-61
1405,-64
1406,-66
1407,-67
1408,-63
1409,-65
1410,-71
1411,-71
1412,-73
1413,-73
1414,-72
1415,-64
1416,-67
1417,-70
1418,-76
1419,-75
1420,-73
1421,-76
1422,-77
1423,-75
1424,-72
1425,-73
1426,-70
1427,-71
1428,-76
1429,-78
1430,-80
1431,-79
1432,-77
1433,-71
1434,-68
1435,-68
1436,-74
1437,-71
1438,-74
1439,-75
1440,-68
1441,-67
1442,-64
1443,-63
1444,-63
1445,-72
1446,-74
1447,-71
1448,-66
1449,-59
1450,-54
1451,-47
1452,-49
1453,-46
1454,-37
1455,-38
1456,-39
1457,-37
1458,-32
1459,-28
1460,-27
1461,-22
1462,-24
1463,-28
1464,-37
1465,-40
1466,-48
1467,-43
1468,-44
1469,-46
1470,-48
1471,-51
1472,-52
1473,-51
1474,-56
1475,-63
1476,-69
1477,-75
1478,-78
1479,-81
1480,-80
1481,-82
1482,-82
1483,-79
1484,-80
1485,-78
1486,-79
1487,-78
1488,-77
1489,-78
1490,-77
1491,-79
1492,-83
1493,-80
1494,-79
1495,-73
1496,-72
1497,-71
1498,-69
1499,-69
1500,-68
1501,-65
1502,-57
1503,-52
1504,-32
1505,-12
1506,19
1507,60
1508,107
1509,158
1510,190
1511,209
1512,217
1513,212
1514,200
1515,177
1516,150
1517,135
1518,126
1519,121
1520,119
1521,120
1522,102
1523,78
1524,46
1525,21
1526,22
1527,43
1528,60
1529,69
1530,57
1531,27
1532,-14
1533,-35
1534,-46
1535,-45
1536,-46
1537,-50
1538,-56
1539,-63
1540,-66
1541,-63
1542,-57
1543,-53
1544,-53
1545,-52
1546,-53
1547,-51
1548,-52
1549,-53
1550,-50
1551,-45
1552,-43
1553,-46
1554,-43
1555,-44
1556,-49
1557,-46
1558,-50
1559,-47
1560,-47
1561,-48
1562,-52
1563,-55
1564,-55
1565,-58
1566,-60
1567,-60
1568,-55
1569,-56
1570,-55
1571,-55
1572,-56
1573,-63
1574,-70
1575,-72
1576,-71
1577,-71
1578,-66
1579,-68
1580,-66
1581,-69
1582,-73
1583,-74
1584,-77
1585,-76
1586,-72
1587,-67
1588,-66
1589,-70
1590,-71
1591,-77
1592,-75
1593,-73
1594,-67
1595,-66
1596,-67
1597,-61
1598,-59
1599,-60
1600,-53
1601,-53
1602,-50
1603,-45
1604,-42
1605,-43
1606,-42
1607,-37
1608,-34
1609,-33
1610,-32
1611,-26
1612,-29
1613,-26
1614,-24
1615,-22
1616,-19
1617,-21
1618,-26
1619,-27
1620,-27
1621,-26
1622,-25
1623,-24
1624,-23
1625,-19
1626,-23
1627,-24
1628,-32
1629,-35
1630,-31
1631,-27
1632,-26
1633,-29
1634,-31
1635,-31
1636,-32
1637,-30
1638,-34
1639,-31
1640,-31
1641,-30
1642,-26
1643,-27
1644,-28
1645,-26
1646,-25
1647,-24
1648,-24
1649,-26
1650,-28
1651,-23
1652,-23
1653,-20
1654,-22
1655,-23
1656,-20
1657,-19
1658,-19
1659,-18
1660,-15
1661,-15
1662,-15
1663,-13
1664,-15
1665,-12
1666,-13
1667,-7
1668,-5
1669,-3
1670,6
1671,12
1672,14
1673,19
1674,20
1675,19
1676,17
1677,19
1678,27
1679,30
1680,27
1681,20
1682,13
1683,10
1684,7
1685,5
1686,0
1687,3
1688,3
1689,5
1690,3
1691,-4
1692,-6
1693,-13
1694,-18
1695,-18
1696,-22
1697,-20
1698,-21
1699,-24
1700,-26
1701,-27
1702,-28
1703,-29
1704,-32
1705,-29
1706,-23
1707,-23
1708,-18
1709,-20
1710,-25
1711,-25
1712,-20
1713,-19
1714,-19
1715,-7
1716,-10
1717,-11
1718,-10
1719,-8
1720,-2
1721,13
1722,31
1723,73
1724,121
1725,175
1726,212
1727,241
1728,253
1729,254
1730,246
1731,231
1732,206
1733,190
1734,179
1735,174
1736,177
1737,177
1738,174
1739,159
1740,141
1741,117
1742,99
1743,105
1744,127
1745,145
1746,143
1747,117
1748,67
1749,22
1750,-4
1751,-12
1752,-8
1753,-6
1754,-13
1755,-23
1756,-37
1757,-43
1758,-40
1759,-45
1760,-40
1761,-38
1762,-35
1763,-34
1764,-39
1765,-37
1766,-41
1767,-38
1768,-40
1769,-44
1770,-40
1771,-38
1772,-40
1773,-41
1774,-43
1775,-45
1776,-53
1777,-48
1778,-51
1779,-54
1780,-52
1781,-56
1782,-59
1783,-65
1784,-62
1785,-61
1786,-63
1787,-64
1788,-62
1789,-65
1790,-67
1791,-74
1792,-72
1793,-76
1794,-77
1795,-79
1796,-78
1797,-75
1798,-71
1799,-71
1800,-72
1801,-76
1802,-73
1803,-72
1804,-73
1805,-76
1806,-71
1807,-67
1808,-64
1809,-67
1810,-70
1811,-70
1812,-66
1813,-66
1814,-62
1815,-57
1816,-55
1817,-56
1818,-51
1819,-53
1820,-52
1821,-48
1822,-43
1823,-37
1824,-32
1825,-28
1826,-26
1827,-23
1828,-23
1829,-24
1830,-25
1831,-27
1832,-27
1833,-25
1834,-20
1835,-16
1836,-19
1837,-21
1838,-23
1839,-26
1840,-27
1841,-28
1842,-22
1843,-23
1844,-17
1845,-17
1846,-26
1847,-27
1848,-28
1849,-30
1850,-35
1851,-27
1852,-22
1853,-23
1854,-26
1855,-26
1856,-35
1857,-39
1858,-35
1859,-31
1860,-31
1861,-27
1862,-26
1863,-28
1864,-33
1865,-32
1866,-35
1867,-34
1868,-30
1869,-33
1870,-32
1871,-27
1872,-30
1873,-29
1874,-30
1875,-28
1876,-30
1877,-31
1878,-32
1879,-35
1880,-31
1881,-26
1882,-27
1883,-26
1884,-22
1885,-22
1886,-10
1887,-5
1888,0
1889,5
1890,4
1891,9
1892,11
1893,6
1894,13
1895,13
1896,14
1897,15
1898,9
1899,5
1900,1
1901,-5
1902,-7
1903,-9
1904,-12
1905,-13
1906,-11
1907,-14
1908,-19
1909,-21
1910,-27
1911,-32
1912,-32
1913,-40
1914,-42
1915,-40
1916,-39
1917,-40
1918,-39
1919,-41
1920,-43
1921,-44
1922,-44
1923,-43
1924,-43
1925,-43
1926,-40
1927,-39
1928,-38
1929,-39
1930,-37
1931,-37
1932,-34
1933,-30
1934,-29
1935,-28
1936,-29
1937,-21
1938,-6
1939,24
1940,63
1941,120
1942,170
1943,210
1944,228
1945,236
1946,230
1947,217
1948,193
1949,167
1950,155
1951,148
1952,146
1953,145
1954,147
1955,144
1956,126
1957,105
1958,87
1959,67
1960,75
1961,100
1962,125
1963,128
1964,106
1965,60
1966,10
1967,-17
1968,-28
1969,-28
1970,-30
1971,-35
1972,-41
1973,-50
1974,-52
1975,-53
1976,-59
1977,-64
1978,-66
1979,-60
1980,-56
1981,-54
1982,-56
1983,-57
1984,-60
1985,-59
1986,-58
1987,-62
1988,-62
1989,-59
1990,-57
1991,-58
1992,-62
1993,-65
1994,-67
1995,-67
1996,-64
1997,-66
1998,-64
1999,-66
2000,-71
2001,-70
2002,-71
2003,-74
2004,-78
2005,-80
2006,-88
2007,-91
2008,-84
2009,-86
2010,-89
2011,-93
2012,-87
2013,-88
2014,-87
2015,-92
2016,-91
2017,-94
2018,-92
2019,-91
2020,-93
2021,-95
2022,-92
2023,-90
2024,-88
2025,-90
2026,-86
2027,-85
2028,-84
2029,-84
2030,-85
2031,-84
2032,-81
2033,-80
2034,-71
2035,-69
2036,-69
2037,-66
2038,-68
2039,-67
2040,-64
2041,-61
2042,-61
2043,-53
2044,-53
2045,-47
2046,-46
2047,-48
2048,-54
2049,-55
2050,-61
2051,-62
2052,-64
2053,-65
2054,-67
2055,-64
2056,-65
2057,-64
2058,-68
2059,-70
2060,-68
2061,-70
2062,-68
2063,-68
2064,-71
2065,-77
2066,-75
2067,-78
2068,-82
2069,-83
2070,-88
2071,-83
2072,-84
2073,-86
2074,-89
2075,-84
2076,-85
2077,-87
2078,-88
2079,-89
2080,-90
2081,-89
2082,-89
2083,-91
2084,-90
2085,-88
2086,-93
2087,-89
2088,-82
2089,-85
2090,-82
2091,-83
2092,-86
2093,-85
2094,-91
2095,-90
2096,-88
2097,-87
2098,-84
2099,-80
2100,-73
2101,-74
2102,-72
2103,-72
2104,-65
2105,-57
2106,-50
2107,-46
2108,-44
2109,-47
2110,-41
2111,-43
2112,-40
2113,-37
2114,-42
2115,-45
2116,-49
2117,-53
2118,-56
2119,-58
2120,-60
2121,-69
2122,-75
2123,-76
2124,-76
2125,-77
2126,-78
2127,-79
2128,-80
2129,-85
2130,-91
2131,-94
2132,-98
2133,-96
2134,-95
2135,-96
2136,-98
2137,-94
2138,-94
2139,-95
2140,-97
2141,-98
2142,-97
2143,-96
2144,-96
2145,-99
2146,-95
2147,-92
2148,-90
2149,-92
2150,-92
2151,-88
2152,-86
2153,-80
2154,-75
2155,-54
2156,-28
2157,7
2158,50
2159,100
2160,137
2161,161
2162,167
2163,169
2164,156
2165,135
2166,113
2167,92
2168,78
2169,76
2170,75
2171,77
2172,71
2173,51
2174,27
2175,0
2176,-17
2177,-12
2178,12
2179,34
2180,40
2181,15
2182,-23
2183,-58
2184,-74
2185,-75
2186,-72
2187,-74
2188,-85
2189,-93
2190,-98
2191,-100
2192,-90
2193,-93
2194,-96
2195,-101
2196,-101
2197,-100
2198,-100
2199,-96
2200,-98
2201,-100
2202,-105
2203,-113
2204,-116
2205,-112
2206,-101
2207,-97
2208,-98
2209,-101
2210,-103
2211,-107
2212,-97
2213,-83
2214,-75
2215,-75
2216,-80
2217,-87
2218,-90
2219,-91
2220,-93
2221,-102
2222,-104
2223,-104
2224,-107
2225,-111
2226,-113
2227,-111
2228,-114
2229,-116
2230,-117
2231,-122
2232,-120
2233,-123
2234,-125
2235,-125
2236,-125
2237,-130
2238,-129
2239,-128
2240,-126
2241,-126
2242,-122
2243,-119
2244,-117
2245,-119
2246,-120
2247,-112
2248,-112
2249,-113
2250,-107
2251,-109
2252,-100
2253,-102
2254,-96
2255,-92
2256,-92
2257,-86
2258,-83
2259,-84
2260,-80
2261,-81
2262,-82
2263,-79
2264,-80
2265,-76
2266,-76
2267,-78
2268,-79
2269,-79
2270,-78
2271,-79
2272,-81
2273,-80
2274,-78
2275,-83
2276,-88
2277,-90
2278,-92
2279,-84
2280,-90
2281,-87
2282,-89
2283,-89
2284,-91
2285,-97
2286,-99
2287,-100
2288,-97
2289,-99
2290,-96
2291,-98
2292,-97
2293,-96
2294,-98
2295,-103
2296,-100
2297,-105
2298,-101
2299,-100
2300,-100
2301,-100
2302,-101
2303,-101
2304,-102
2305,-103
2306,-106
2307,-105
2308,-104
2309,-103
2310,-101
2311,-98
2312,-100
2313,-102
2314,-101
2315,-106
2316,-108
2317,-111
2318,-110
2319,-104
2320,-97
2321,-91
2322,-88
2323,-87
2324,-85
2325,-80
2326,-77
2327,-75
2328,-72
2329,-67
2330,-67
2331,-65
2332,-67
2333,-69
2334,-75
2335,-77
2336,-80
2337,-82
2338,-83
2339,-83
2340,-89
2341,-93
2342,-97
2343,-95
2344,-98
2345,-105
2346,-109
2347,-110
2348,-110
2349,-118
2350,-119
2351,-123
2352,-125
2353,-122
2354,-121
2355,-119
2356,-119
2357,-116
2358,-117
2359,-114
2360,-117
2361,-117
2362,-119
2363,-116
2364,-116
2365,-121
2366,-114
2367,-114
2368,-111
2369,-113
2370,-113
2371,-112
2372,-109
2373,-100
2374,-84
2375,-64
2376,-33
2377,9
2378,57
2379,101
2380,123
2381,126
2382,125
2383,114
2384,94
2385,73
2386,50
2387,39
2388,28
2389,26
2390,26
2391,23
2392,11
2393,-4
2394,-31
2395,-52
2396,-48
2397,-30
2398,-2
2399,14
2400,-1
2401,-43
2402,-89
2403,-117
2404,-123
2405,-123
2406,-118
2407,-128
2408,-140
2409,-149
2410,-156
2411,-152
2412,-154
2413,-150
2414,-152
2415,-150
2416,-154
2417,-153
2418,-156
2419,-157
2420,-156
2421,-149
2422,-153
2423,-150
2424,-156
2425,-154
2426,-153
2427,-158
2428,-157
2429,-158
2430,-154
2431,-153
2432,-157
2433,-161
2434,-160
2435,-162
2436,-165
2437,-164
2438,-161
2439,-163
2440,-158
2441,-158
2442,-162
2443,-170
2444,-176
2445,-176
2446,-174
2447,-170
2448,-168
2449,-167
2450,-169
2451,-168
2452,-169
2453,-169
2454,-167
2455,-169
2456,-171
2457,-165
2458,-159
2459,-159
2460,-155
2461,-154
2462,-155
2463,-152
2464,-156
2465,-152
2466,-146
2467,-140
2468,-138
2469,-143
2470,-142
2471,-135
2472,-133
2473,-128
2474,-125
2475,-126
2476,-121
2477,-116
2478,-114
2479,-116
2480,-119
2481,-121
2482,-123
2483,-122
2484,-116
2485,-110
2486,-114
2487,-113
2488,-116
2489,-122
2490,-121
2491,-121
2492,-128
2493,-124
2494,-118
2495,-123
2496,-120
2497,-125
2498,-122
2499,-125
2500,-127
2501,-127
2502,-132
2503,-128
2504,-127
2505,-130
2506,-130
2507,-128
2508,-133
2509,-136
2510,-135
2511,-127
2512,-124
2513,-126
2514,-119
2515,-126
2516,-128
2517,-128
2518,-128
2519,-128
2520,-124
2521,-128
2522,-127
2523,-121
2524,-117
2525,-120
2526,-128
2527,-126
2528,-124
2529,-123
2530,-120
2531,-118
2532,-121
2533,-117
2534,-114
2535,-111
2536,-109
2537,-106
2538,-104
2539,-99
2540,-96
2541,-88
2542,-83
2543,-81
2544,-81
2545,-77
2546,-72
2547,-67
2548,-66
2549,-75
2550,-79
2551,-78
2552,-85
2553,-94
2554,-98
2555,-96
2556,-96
2557,-96
2558,-97
2559,-99
2560,-98
2561,-102
2562,-109
2563,-119
2564,-124
2565,-132
2566,-129
2567,-128
2568,-128
2569,-128
2570,-131
2571,-133
2572,-130
2573,-131
2574,-128
2575,-128
2576,-126
2577,-119
2578,-120
2579,-119
2580,-123
2581,-121
2582,-123
2583,-125
2584,-123
2585,-115
2586,-116
2587,-108
2588,-98
2589,-87
2590,-69
2591,-39
2592,-1
2593,55
2594,105
2595,142
2596,162
2597,165
2598,157
2599,141
2600,113
2601,91
2602,73
2603,67
2604,67
2605,65
2606,59
2607,40
2608,14
2609,-19
2610,-46
2611,-49
2612,-34
2613,-5
2614,11
2615,-3
2616,-45
2617,-83
2618,-104
2619,-108
2620,-98
2621,-96
2622,-99
2623,-109
2624,-116
2625,-126
2626,-126
2627,-128
2628,-131
2629,-131
2630,-128
2631,-124
2632,-120
2633,-117
2634,-117
2635,-118
2636,-116
2637,-118
2638,-115
2639,-116
2640,-116
2641,-118
2642,-117
2643,-117
2644,-112
2645,-117
2646,-120
2647,-125
2648,-129
2649,-128
2650,-127
2651,-127
2652,-126
2653,-127
2654,-130
2655,-135
2656,-133
2657,-135
2658,-133
2659,-130
2660,-126
2661,-121
2662,-127
2663,-128
2664,-133
2665,-132
2666,-134
2667,-137
2668,-131
2669,-130
2670,-128
2671,-126
2672,-133
2673,-140
2674,-138
2675,-135
2676,-126
2677,-124
2678,-119
2679,-117
2680,-121
2681,-124
2682,-128
2683,-128
2684,-122
2685,-115
2686,-110
2687,-109
2688,-110
2689,-112
2690,-109
2691,-103
2692,-101
2693,-97
2694,-92
2695,-91
2696,-86
2697,-83
2698,-83
2699,-86
2700,-86
2701,-87
2702,-94
2703,-96
2704,-96
2705,-91
2706,-93
2707,-88
2708,-91
2709,-94
2710,-97
2711,-97
2712,-94
2713,-95
2714,-97
2715,-97
2716,-96
2717,-97
2718,-96
2719,-97
2720,-106
2721,-108
2722,-110
2723,-108
2724,-107
2725,-107
2726,-108
2727,-107
2728,-106
2729,-108
2730,-109
2731,-104
2732,-99
2733,-93
2734,-95
2735,-100
2736,-109
2737,-108
2738,-108
2739,-107
2740,-105
2741,-104
2742,-97
2743,-98
2744,-99
2745,-100
2746,-98
2747,-91
2748,-91
2749,-97
2750,-96
2751,-100
2752,-93
2753,-88
2754,-79
2755,-79
2756,-77
2757,-71
2758,-61
2759,-60
2760,-55
2761,-49
2762,-49
2763,-50
2764,-54
2765,-61
2766,-71
2767,-67
2768,-68
2769,-64
2770,-67
2771,-70
2772,-75
2773,-77
2774,-80
2775,-83
2776,-83
2777,-81
2778,-82
2779,-82
2780,-93
2781,-92
2782,-95
2783,-101
2784,-98
2785,-102
2786,-101
2787,-103
2788,-102
2789,-99
2790,-98
2791,-96
2792,-96
2793,-95
2794,-93
2795,-89
2796,-86
2797,-83
2798,-82
2799,-87
2800,-94
2801,-100
2802,-95
2803,-87
2804,-80
2805,-66
2806,-48
2807,-22
2808,15
2809,63
2810,116
2811,159
2812,184
2813,195
2814,201
2815,191
2816,171
2817,142
2818,123
2819,111
2820,104
2821,108
2822,107
2823,102
2824,85
2825,70
2826,42
2827,26
2828,35
2829,61
2830,79
2831,76
2832,48
2833,1
2834,-39
2835,-57
2836,-61
2837,-64
2838,-69
2839,-78
2840,-87
2841,-91
2842,-92
2843,-87
2844,-84
2845,-84
2846,-83
2847,-83
2848,-83
2849,-82
2850,-95
2851,-94
2852,-89
2853,-90
2854,-83
2855,-82
2856,-80
2857,-84
2858,-96
2859,-96
2860,-95
2861,-90
2862,-89
2863,-88
2864,-85
2865,-91
2866,-91
2867,-87
2868,-85
2869,-86
2870,-101
2871,-108
2872,-104
2873,-102
2874,-96
2875,-94
2876,-102
2877,-113
2878,-114
2879,-109
2880,-107
2881,-106
2882,-108
2883,-108
2884,-108
2885,-109
2886,-108
2887,-109
2888,-104
2889,-103
2890,-105
2891,-103
2892,-103
2893,-105
2894,-101
2895,-100
2896,-99
2897,-95
2898,-99
2899,-95
2900,-93
2901,-89
2902,-90
2903,-89
2904,-90
2905,-86
2906,-79
2907,-74
2908,-74
2909,-71
2910,-74
2911,-72
2912,-68
2913,-65
2914,-64
2915,-63
2916,-62
2917,-61
2918,-60
2919,-58
2920,-61
2921,-64
2922,-67
2923,-64
2924,-69
2925,-61
2926,-67
2927,-65
2928,-71
2929,-76
2930,-81
2931,-82
2932,-79
2933,-77
2934,-76
2935,-75
2936,-77
2937,-79
2938,-74
2939,-79
2940,-83
2941,-88
2942,-87
2943,-90
2944,-87
2945,-86
2946,-82
2947,-79
2948,-84
2949,-91
2950,-92
2951,-94
2952,-89
2953,-86
2954,-84
2955,-80
2956,-84
2957,-91
2958,-98
2959,-102
2960,-96
2961,-89
2962,-86
2963,-84
2964,-84
2965,-87
2966,-89
2967,-88
2968,-90
2969,-84
2970,-77
2971,-68
2972,-63
2973,-61
2974,-60
2975,-62
2976,-60
2977,-61
2978,-58
2979,-55
2980,-57
2981,-61
2982,-64
2983,-65
2984,-71
2985,-71
2986,-77
2987,-80
2988,-79
2989,-85
2990,-91
2991,-98
2992,-106
2993,-107
2994,-106
2995,-116
2996,-124
2997,-128
2998,-127
2999,-121
3000,-122
3001,-124
3002,-125
3003,-126
3004,-126
3005,-128
3006,-128
3007,-128
3008,-126
3009,-124
3010,-122
3011,-124
3012,-128
3013,-132
3014,-130
3015,-128
3016,-126
3017,-123
3018,-117
3019,-115
3020,-116
3021,-103
3022,-77
3023,-43
3024,3
3025,54
3026,101
3027,128
3028,139
3029,134
3030,120
3031,102
3032,77
3033,53
3034,39
3035,37
3036,31
3037,28
3038,32
3039,16
3040,-17
3041,-42
3042,-72
3043,-75
3044,-54
3045,-24
3046,-8
3047,-21
3048,-56
3049,-100
3050,-124
3051,-132
3052,-126
3053,-124
3054,-129
3055,-137
3056,-147
3057,-149
3058,-149
3059,-148
3060,-149
3061,-147
3062,-148
3063,-147
3064,-146
3065,-150
3066,-154
3067,-157
3068,-156
3069,-153
3070,-157
3071,-157
3072,-153
3073,-152
3074,-151
3075,-153
3076,-152
3077,-155
3078,-158
3079,-159
3080,-161
3081,-165
3082,-162
3083,-157
3084,-161
3085,-163
3086,-165
3087,-172
3088,-175
3089,-174
3090,-167
3091,-165
3092,-164
3093,-165
3094,-168
3095,-174
3096,-171
3097,-174
3098,-173
3099,-164
3100,-171
3101,-172
3102,-171
3103,-172
3104,-174
3105,-170
3106,-168
3107,-169
3108,-164
3109,-163
3110,-160
3111,-166
3112,-163
3113,-160
3114,-160
3115,-161
3116,-153
3117,-152
3118,-145
3119,-143
3120,-141
3121,-144
3122,-142
3123,-139
3124,-137
3125,-137
3126,-131
3127,-127
3128,-124
3129,-124
3130,-129
3131,-131
3132,-133
3133,-131
3134,-128
3135,-122
3136,-124
3137,-123
3138,-125
3139,-125
3140,-128
3141,-131
3142,-129
3143,-132
3144,-128
3145,-131
3146,-127
3147,-124
3148,-128
3149,-132
3150,-128
3151,-132
3152,-129
3153,-135
3154,-131
3155,-127
3156,-126
3157,-126
3158,-129
3159,-125
3160,-126
3161,-124
3162,-126
3163,-124
3164,-123
3165,-120
3166,-121
3167,-120
3168,-120
3169,-118
3170,-117
3171,-118
3172,-116
3173,-114
3174,-111
3175,-108
3176,-107
3177,-107
3178,-104
3179,-96
3180,-91
3181,-88
3182,-80
3183,-79
3184,-71
3185,-70
3186,-65
3187,-70
3188,-64
3189,-61
3190,-57
3191,-61
3192,-69
3193,-64
3194,-69
3195,-73
3196,-80
3197,-86
3198,-87
3199,-82
3200,-83
3201,-88
3202,-88
3203,-93
3204,-94
3205,-101
3206,-107
3207,-105
3208,-110
3209,-111
3210,-107
3211,-111
3212,-112
3213,-110
3214,-114
3215,-114
3216,-112
3217,-112
3218,-113
3219,-108
3220,-106
3221,-107
3222,-108
3223,-108
3224,-106
3225,-108
3226,-101
3227,-102
3228,-101
3229,-99
3230,-97
3231,-92
3232,-87
3233,-72
3234,-51
3235,-16
3236,35
3237,89
3238,134
3239,161
3240,174
3241,176
3242,165
3243,147
3244,127
3245,108
3246,97
3247,90
3248,88
3249,96
3250,85
3251,71
3252,49
3253,25
3254,5
3255,13
3256,31
3257,47
3258,51
3259,32
3260,-8
3261,-50
3262,-80
3263,-90
3264,-91
3265,-90
3266,-90
3267,-97
3268,-106
3269,-108
3270,-109
3271,-111
3272,-111
3273,-105
3274,-108
3275,-105
3276,-102
3277,-103
3278,-107
3279,-109
3280,-107
3281,-106
3282,-107
3283,-107
3284,-103
3285,-104
3286,-107
3287,-112
3288,-112
3289,-111
3290,-114
3291,-115
3292,-118
3293,-117
3294,-118
3295,-125
3296,-124
3297,-127
3298,-126
3299,-127
3300,-123
3301,-129
3302,-124
3303,-124
3304,-128
3305,-130
3306,-132
3307,-136
3308,-135
3309,-138
3310,-139
3311,-134
3312,-131
3313,-133
3314,-131
3315,-135
3316,-135
3317,-136
3318,-134
3319,-133
3320,-130
3321,-130
3322,-129
3323,-132
3324,-133
3325,-132
3326,-128
3327,-123
3328,-120
3329,-116
3330,-115
3331,-112
3332,-114
3333,-111
3334,-110
3335,-108
3336,-108
3337,-102
3338,-102
3339,-97
3340,-94
3341,-95
3342,-93
3343,-94
3344,-95
3345,-95
3346,-98
3347,-90
3348,-89
3349,-92
3350,-95
3351,-98
3352,-100
3353,-103
3354,-101
3355,-101
3356,-96
3357,-93
3358,-95
3359,-97
3360,-98
3361,-100
3362,-101
3363,-98
3364,-101
3365,-102
3366,-98
3367,-100
3368,-106
3369,-103
3370,-98
3371,-101
3372,-99
3373,-100
3374,-98
3375,-96
3376,-100
3377,-98
3378,-99
3379,-98
3380,-100
3381,-99
3382,-98
3383,-96
3384,-97
3385,-99
3386,-100
3387,-97
3388,-100
3389,-99
3390,-99
3391,-100
3392,-99
3393,-95
3394,-89
3395,-90
3396,-88
3397,-83
3398,-82
3399,-78
3400,-73
3401,-69
3402,-69
3403,-67
3404,-64
3405,-61
3406,-63
3407,-62
3408,-63
3409,-64
3410,-64
3411,-67
3412,-66
3413,-72
3414,-70
3415,-77
3416,-79
3417,-80
3418,-82
3419,-86
3420,-86
3421,-89
3422,-89
3423,-90
3424,-98
3425,-105
3426,-105
3427,-107
3428,-109
3429,-107
3430,-105
3431,-104
3432,-103
3433,-104
3434,-110
3435,-110
3436,-112
3437,-112
3438,-110
3439,-110
3440,-108
3441,-103
3442,-108
3443,-104
3444,-102
3445,-107
3446,-104
3447,-103
3448,-95
3449,-91
3450,-78
3451,-63
3452,-28
3453,13
3454,59
3455,91
3456,117
3457,123
3458,121
3459,111
3460,95
3461,75
3462,59
3463,42
3464,38
3465,38
3466,42
3467,34
3468,20
3469,2
3470,-20
3471,-35
3472,-36
3473,-19
3474,3
3475,8
3476,-6
3477,-40
3478,-72
3479,-90
3480,-94
3481,-96
3482,-90
3483,-96
3484,-100
3485,-106
3486,-110
3487,-113
3488,-114
3489,-115
3490,-119
3491,-118
3492,-119
3493,-116
3494,-113
3495,-112
3496,-111
3497,-114
3498,-111
3499,-112
3500,-115
3501,-114
3502,-114
3503,-115
3504,-114
3505,-113
3506,-115
3507,-113
3508,-113
3509,-111
3510,-114
3511,-119
3512,-119
3513,-121
3514,-123
3515,-119
3516,-122
3517,-124
3518,-124
3519,-121
3520,-123
3521,-123
3522,-121
3523,-122
3524,-125
3525,-124
3526,-127
3527,-128
3528,-130
3529,-125
3530,-123
3531,-124
3532,-122
3533,-121
3534,-119
3535,-120
3536,-123
3537,-128
3538,-127
3539,-121
3540,-121
3541,-117
3542,-113
3543,-121
3544,-119
3545,-115
3546,-114
3547,-110
3548,-108
3549,-103
3550,-100
3551,-95
3552,-96
3553,-95
3554,-91
3555,-92
3556,-86
3557,-86
3558,-89
3559,-83
3560,-85
3561,-88
3562,-90
3563,-91
3564,-92
3565,-90
3566,-88
3567,-86
3568,-87
3569,-83
3570,-83
3571,-90
3572,-93
3573,-92
3574,-99
3575,-96
3576,-97
3577,-97
3578,-91
3579,-87
3580,-91
3581,-94
3582,-91
3583,-90
3584,-93
3585,-88
3586,-88
3587,-92
3588,-90
3589,-93
3590,-93
3591,-91
3592,-91
3593,-93
3594,-94
3595,-89
3596,-90
3597,-86
3598,-87
3599,-82
3600,-84
3601,-84
3602,-85
3603,-80
3604,-84
3605,-82
3606,-77
3607,-76
3608,-76
3609,-79
3610,-82
3611,-80
3612,-75
3613,-73
3614,-73
3615,-68
3616,-64
3617,-60
3618,-59
3619,-58
3620,-60
3621,-57
3622,-50
3623,-42
3624,-35
3625,-32
3626,-33
3627,-30
3628,-29
3629,-32
3630,-34
3631,-35
3632,-41
3633,-47
3634,-50
3635,-50
3636,-47
3637,-46
3638,-42
3639,-38
3640,-43
3641,-59
3642,-64
3643,-68
3644,-74
3645,-71
3646,-70
3647,-70
3648,-70
3649,-66
3650,-73
3651,-74
3652,-77
3653,-73
3654,-73
3655,-69
3656,-66
3657,-65
3658,-66
3659,-64
3660,-71
3661,-67
3662,-60
3663,-56
3664,-62
3665,-60
3666,-60
3667,-59
3668,-50
3669,-38
3670,-34
3671,-25
3672,-9
3673,19
3674,52
3675,90
3676,119
3677,130
3678,126
3679,119
3680,102
3681,83
3682,69
3683,61
3684,56
3685,52
3686,50
3687,50
3688,40
3689,29
3690,7
3691,-9
3692,-13
3693,-5
3694,15
3695,19
3696,16
3697,-10
3698,-36
3699,-49
3700,-53
3701,-55
3702,-53
3703,-61
3704,-73
3705,-75
3706,-75
3707,-71
3708,-72
3709,-82
3710,-80
3711,-81
3712,-75
3713,-71
3714,-69
3715,-70
3716,-76
3717,-79
3718,-73
3719,-77
3720,-76
3721,-78
3722,-76
3723,-79
3724,-76
3725,-71
3726,-73
3727,-73
3728,-73
3729,-79
3730,-79
3731,-86
3732,-86
3733,-84
3734,-86
3735,-86
3736,-87
3737,-94
3738,-95
3739,-92
3740,-91
3741,-91
3742,-92
3743,-86
3744,-83
3745,-87
3746,-89
3747,-97
3748,-100
3749,-103
3750,-99
3751,-95
3752,-90
3753,-93
3754,-92
3755,-91
3756,-90
3757,-88
3758,-88
3759,-89
3760,-86
3761,-82
3762,-82
3763,-79
3764,-82
3765,-76
3766,-78
3767,-78
3768,-83
3769,-79
3770,-70
3771,-66
3772,-67
3773,-64
3774,-64
3775,-60
3776,-57
3777,-56
3778,-56
3779,-55
3780,-52
3781,-54
3782,-55
3783,-58
3784,-65
3785,-72
3786,-69
3787,-67
3788,-59
3789,-57
3790,-58
3791,-62
3792,-60
3793,-59
3794,-62
3795,-61
3796,-60
3797,-60
3798,-64
3799,-64
3800,-67
3801,-61
3802,-60
3803,-58
3804,-54
3805,-58
3806,-58
3807,-62
3808,-64
3809,-65
3810,-65
3811,-67
3812,-67
3813,-65
3814,-63
3815,-64
3816,-59
3817,-58
3818,-56
3819,-61
3820,-58
3821,-52
3822,-53
3823,-50
3824,-51
3825,-56
3826,-54
3827,-57
3828,-55
3829,-44
3830,-44
3831,-47
3832,-40
3833,-33
3834,-26
3835,-23
3836,-23
3837,-22
3838,-26
3839,-25
3840,-21
3841,-17
3842,-12
3843,-12
3844,-19
3845,-23
3846,-23
3847,-28
3848,-29
3849,-31
3850,-34
3851,-37
3852,-29
3853,-29
3854,-29
3855,-31
3856,-38
3857,-42
3858,-45
3859,-47
3860,-46
3861,-47
3862,-42
3863,-37
3864,-41
3865,-39
3866,-41
3867,-46
3868,-45
3869,-44
3870,-44
3871,-44
3872,-43
3873,-38
3874,-38
3875,-41
3876,-41
3877,-41
3878,-41
3879,-40
3880,-36
3881,-36
3882,-35
3883,-31
3884,-26
3885,-17
3886,0
3887,24
3888,57
3889,89
3890,117
3891,135
3892,142
3893,148
3894,141
3895,130
3896,117
3897,105
3898,93
3899,88
3900,88
3901,89
3902,87
3903,74
3904,66
3905,45
3906,34
3907,36
3908,54
3909,66
3910,68
3911,49
3912,16
3913,-7
3914,-24
3915,-34
3916,-30
3917,-28
3918,-31
3919,-38
3920,-42
3921,-50
3922,-55
3923,-51
3924,-46
3925,-44
3926,-41
3927,-38
3928,-41
3929,-46
3930,-45
3931,-44
3932,-42
3933,-42
3934,-41
3935,-46
3936,-45
3937,-45
3938,-48
3939,-48
3940,-49
3941,-46
3942,-43
3943,-48
3944,-46
3945,-47
3946,-41
3947,-42
3948,-40
3949,-38
3950,-43
3951,-41
3952,-42
3953,-41
3954,-40
3955,-41
3956,-41
3957,-39
3958,-44
3959,-43
3960,-48
3961,-45
3962,-45
3963,-43
3964,-45
3965,-45
3966,-47
3967,-44
3968,-43
3969,-38
3970,-36
3971,-33
3972,-23
3973,-23
3974,-25
3975,-20
3976,-19
3977,-17
3978,-19
3979,-13
3980,-11
3981,-8
3982,-7
3983,-5
3984,-3
3985,-3
3986,0
3987,7
3988,8
3989,13
3990,15
3991,16
3992,11
3993,14
3994,13
3995,15
3996,8
3997,14
3998,17
3999,19
4000,15
4001,12
4002,7
4003,6
4004,6
4005,9
4006,7
4007,7
4008,11
4009,9
4010,11
4011,10
4012,8
4013,6
4014,7
4015,10
4016,11
4017,10
4018,7
4019,0
4020,1
4021,0
4022,-5
4023,-3
4024,-8
4025,-8
4026,-6
4027,0
4028,0
4029,0
4030,1
4031,0
4032,-3
4033,0
4034,3
4035,2
4036,3
4037,2
4038,3
4039,1
4040,1
4041,0
4042,0
4043,-6
4044,-5
4045,-2
4046,1
4047,1
4048,6
4049,2
4050,7
4051,10
4052,11
4053,15
4054,19
4055,19
4056,24
4057,27
4058,25
4059,25
4060,29
4061,28
4062,27
4063,24
4064,23
4065,18
4066,17
4067,14
4068,8
4069,6
4070,8
4071,12
4072,11
4073,9
4074,6
4075,1
4076,-8
4077,-7
4078,-8
4079,-9
4080,-6
4081,-4
4082,-4
4083,-6
4084,-7
4085,-8
4086,-8
4087,-6
4088,-5
4089,0
4090,0
4091,3
4092,3
4093,-3
4094,-8
4095,-17
4096,-17
4097,-15
4098,-12
4099,-8
4100,-2
4101,3
4102,3
4103,17
4104,36
4105,61
4106,88
4107,121
4108,143
4109,148
4110,144
4111,141
4112,129
4113,118
4114,98
4115,88
4116,85
4117,83
4118,86
4119,85
4120,78
4121,65
4122,43
4123,23
4124,14
4125,27
4126,42
4127,57
4128,58
4129,38
4130,10
4131,-9
4132,-22
4133,-25
4134,-20
4135,-29
4136,-34
4137,-40
4138,-43
4139,-45
4140,-41
4141,-38
4142,-40
4143,-43
4144,-46
4145,-48
4146,-39
4147,-41
4148,-38
4149,-44
4150,-49
4151,-54
4152,-51
4153,-50
4154,-47
4155,-46
4156,-54
4157,-50
4158,-49
4159,-50
4160,-51
4161,-50
4162,-52
4163,-50
4164,-50
4165,-50
4166,-55
4167,-62
4168,-65
4169,-69
4170,-67
4171,-67
4172,-69
4173,-68
4174,-68
4175,-67
4176,-69
4177,-70
4178,-68
4179,-76
4180,-72
4181,-69
4182,-72
4183,-75
4184,-74
4185,-80
4186,-79
4187,-76
4188,-79
4189,-78
4190,-73
4191,-67
4192,-67
4193,-64
4194,-64
4195,-69
4196,-64
4197,-62
4198,-61
4199,-62
4200,-62
4201,-63
4202,-59
4203,-59
4204,-52
4205,-49
4206,-50
4207,-43
4208,-43
4209,-47
4210,-49
4211,-46
4212,-46
4213,-45
4214,-50
4215,-46
4216,-48
4217,-47
4218,-44
4219,-42
4220,-40
4221,-43
4222,-45
4223,-54
4224,-54
4225,-56
4226,-58
4227,-53
4228,-51
4229,-55
4230,-56
4231,-61
4232,-60
4233,-62
4234,-58
4235,-62
4236,-64
4237,-62
4238,-61
4239,-62
4240,-64
4241,-63
4242,-67
4243,-68
4244,-67
4245,-65
4246,-63
4247,-57
4248,-62
4249,-65
4250,-66
4251,-68
4252,-68
4253,-71
4254,-69
4255,-69
4256,-68
4257,-62
4258,-64
4259,-63
4260,-64
4261,-68
4262,-64
4263,-68
4264,-66
4265,-63
4266,-59
4267,-56
4268,-53
4269,-55
4270,-51
4271,-52
4272,-47
4273,-47
4274,-46
4275,-46
4276,-43
4277,-39
4278,-40
4279,-36
4280,-37
4281,-38
4282,-41
4283,-42
4284,-42
4285,-40
4286,-43
4287,-46
4288,-52
4289,-59
4290,-61
4291,-62
4292,-62
4293,-62
4294,-65
4295,-62
4296,-68
4297,-74
4298,-75
4299,-77
4300,-78
4301,-83
4302,-78
4303,-80
4304,-79
4305,-80
4306,-81
4307,-80
4308,-74
4309,-75
4310,-73
4311,-74
4312,-75
4313,-81
4314,-82
4315,-81
4316,-81
4317,-79
4318,-77
4319,-71
4320,-68
4321,-63
4322,-50
4323,-36
4324,-19
4325,5
4326,34
4327,65
4328,88
4329,97
4330,100
4331,98
4332,89
4333,72
4334,62
4335,49
4336,47
4337,39
4338,39
4339,37
4340,35
4341,25
4342,11
4343,3
4344,-5
4345,0
4346,19
4347,25
4348,24
4349,4
4350,-31
4351,-55
4352,-63
4353,-65
4354,-65
4355,-69
4356,-76
4357,-80
4358,-81
4359,-84
4360,-83
4361,-85
4362,-83
4363,-86
4364,-89
4365,-94
4366,-101
4367,-97
4368,-93
4369,-86
4370,-91
4371,-89
4372,-93
4373,-96
4374,-93
4375,-91
4376,-91
4377,-89
4378,-89
4379,-93
4380,-96
4381,-96
4382,-95
4383,-93
4384,-93
4385,-90
4386,-85
4387,-88
4388,-88
4389,-88
4390,-102
4391,-111
4392,-115
4393,-113
4394,-110
4395,-114
4396,-107
4397,-114
4398,-113
4399,-110
4400,-110
4401,-107
4402,-108
4403,-108
4404,-107
4405,-106
4406,-109
4407,-109
4408,-109
4409,-110
4410,-111
4411,-104
4412,-105
4413,-103
4414,-103
4415,-94
4416,-98
4417,-99
4418,-92
4419,-90
4420,-85
4421,-85
4422,-79
4423,-79
4424,-77
4425,-75
4426,-78
4427,-81
4428,-74
4429,-72
4430,-75
4431,-68
4432,-67
4433,-70
4434,-69
4435,-71
4436,-68
4437,-70
4438,-67
4439,-73
4440,-71
4441,-73
4442,-70
4443,-73
4444,-75
4445,-78
4446,-77
4447,-76
4448,-77
4449,-76
4450,-77
4451,-80
4452,-75
4453,-79
4454,-80
4455,-84
4456,-83
4457,-83
4458,-81
4459,-81
4460,-84
4461,-80
4462,-83
4463,-85
4464,-84
4465,-81
4466,-80
4467,-78
4468,-77
4469,-82
4470,-83
4471,-82
4472,-83
4473,-85
4474,-82
4475,-82
4476,-80
4477,-82
4478,-80
4479,-82
4480,-86
4481,-82
4482,-81
4483,-85
4484,-82
4485,-77
4486,-77
4487,-77
4488,-73
4489,-77
4490,-74
4491,-72
4492,-66
4493,-62
4494,-61
4495,-55
4496,-53
4497,-53
4498,-53
4499,-52
4500,-51
4501,-51
4502,-48
4503,-52
4504,-58
4505,-61
4506,-60
4507,-65
4508,-68
4509,-67
4510,-74
4511,-74
4512,-75
4513,-79
4514,-79
4515,-82
4516,-90
4517,-96
4518,-98
4519,-99
4520,-101
4521,-96
4522,-96
4523,-95
4524,-99
4525,-98
4526,-99
4527,-102
4528,-105
4529,-101
4530,-100
4531,-100
4532,-96
4533,-98
4534,-97
4535,-96
4536,-96
4537,-97
4538,-96
4539,-91
4540,-89
4541,-82
4542,-73
4543,-62
4544,-46
4545,-21
4546,11
4547,44
4548,79
4549,101
4550,113
4551,114
4552,103
4553,94
4554,79
4555,61
4556,50
4557,45
4558,48
4559,47
4560,47
4561,37
4562,25
4563,8
4564,-3
4565,-6
4566,10
4567,28
4568,32
4569,12
4570,-22
4571,-56
4572,-79
4573,-91
4574,-94
4575,-95
4576,-98
4577,-107
4578,-112
4579,-115
4580,-116
4581,-117
4582,-114
4583,-118
4584,-121
4585,-122
4586,-117
4587,-119
4588,-119
4589,-118
4590,-119
4591,-122
4592,-119
4593,-119
4594,-123
4595,-123
4596,-118
4597,-118
4598,-123
4599,-124
4600,-121
4601,-128
4602,-124
4603,-127
4604,-127
4605,-125
4606,-127
4607,-128
4608,-128
4609,-128
4610,-136
4611,-135
4612,-137
4613,-137
4614,-135
4615,-132
4616,-138
4617,-136
4618,-140
4619,-140
4620,-143
4621,-142
4622,-136
4623,-136
4624,-138
4625,-136
4626,-135
4627,-136
4628,-138
4629,-135
4630,-135
4631,-137
4632,-133
4633,-133
4634,-132
4635,-131
4636,-128
4637,-127
4638,-122
4639,-119
4640,-114
4641,-110
4642,-105
4643,-108
4644,-105
4645,-99
4646,-103
4647,-104
4648,-101
4649,-102
4650,-97
4651,-94
4652,-93
4653,-92
4654,-92
4655,-97
4656,-101
4657,-94
4658,-97
4659,-93
4660,-94
4661,-94
4662,-93
4663,-95
4664,-98
4665,-98
4666,-97
4667,-98
4668,-96
4669,-97
4670,-96
4671,-96
4672,-100
4673,-101
4674,-105
4675,-100
4676,-100
4677,-99
4678,-100
4679,-101
4680,-100
4681,-105
4682,-100
4683,-100
4684,-102
4685,-100
4686,-96
4687,-97
4688,-92
4689,-93
4690,-98
4691,-98
4692,-102
4693,-104
4694,-104
4695,-102
4696,-99
4697,-96
4698,-96
4699,-95
4700,-91
4701,-98
4702,-97
4703,-102
4704,-101
4705,-95
4706,-94
4707,-87
4708,-87
4709,-82
4710,-80
4711,-79
4712,-73
4713,-71
4714,-67
4715,-62
4716,-62
4717,-59
4718,-56
4719,-56
4720,-56
4721,-56
4722,-60
4723,-59
4724,-63
4725,-63
4726,-69
4727,-73
4728,-78
4729,-76
4730,-80
4731,-81
4732,-78
4733,-79
4734,-81
4735,-88
4736,-92
4737,-96
4738,-99
4739,-96
4740,-97
4741,-99
4742,-96
4743,-97
4744,-101
4745,-102
4746,-100
4747,-99
4748,-97
4749,-98
4750,-90
4751,-94
4752,-93
4753,-92
4754,-96
4755,-103
4756,-106
4757,-100
4758,-98
4759,-92
4760,-88
4761,-84
4762,-72
4763,-56
4764,-33
4765,3
4766,49
4767,91
4768,118
4769,136
4770,137
4771,136
4772,127
4773,111
4774,89
4775,81
4776,78
4777,81
4778,83
4779,83
4780,74
4781,56
4782,32
4783,22
4784,18
4785,39
4786,60
4787,76
4788,62
4789,30
4790,-13
4791,-53
4792,-71
4793,-72
4794,-73
4795,-74
4796,-83
4797,-93
4798,-95
4799,-96
4800,-95
4801,-95
4802,-95
4803,-95
4804,-98
4805,-100
4806,-96
4807,-95
4808,-96
4809,-99
4810,-95
4811,-102
4812,-98
4813,-97
4814,-96
4815,-98
4816,-102
4817,-101
4818,-102
4819,-104
4820,-103
4821,-107
4822,-106
4823,-106
4824,-109
4825,-110
4826,-107
4827,-111
4828,-112
4829,-113
4830,-115
4831,-115
4832,-112
4833,-116
4834,-114
4835,-114
4836,-117
4837,-122
4838,-123
4839,-123
4840,-125
4841,-125
4842,-124
4843,-121
4844,-118
4845,-122
4846,-122
4847,-120
4848,-122
4849,-121
4850,-121
4851,-120
4852,-116
4853,-118
4854,-114
4855,-116
4856,-116
4857,-115
4858,-109
4859,-107
4860,-103
4861,-104
4862,-94
4863,-92
4864,-90
4865,-86
4866,-85
4867,-87
4868,-81
4869,-80
4870,-73
4871,-75
4872,-73
4873,-72
4874,-76
4875,-75
4876,-73
4877,-68
4878,-63
4879,-69
4880,-71
4881,-73
4882,-72
4883,-72
4884,-72
4885,-73
4886,-71
4887,-73
4888,-71
4889,-72
4890,-74
4891,-73
4892,-79
4893,-85
4894,-89
4895,-88
4896,-83
4897,-85
4898,-88
4899,-84
4900,-88
4901,-86
4902,-93
4903,-97
4904,-102
4905,-97
4906,-95
4907,-93
4908,-95
4909,-96
4910,-99
4911,-101
4912,-100
4913,-100
4914,-100
4915,-95
4916,-93
4917,-96
4918,-98
4919,-95
4920,-95
4921,-93
4922,-95
4923,-95
4924,-98
4925,-98
4926,-92
4927,-88
4928,-86
4929,-87
4930,-85
4931,-84
4932,-77
4933,-66
4934,-66
4935,-63
4936,-56
4937,-54
4938,-56
4939,-54
4940,-53
4941,-53
4942,-55
4943,-57
4944,-64
4945,-67
4946,-66
4947,-72
4948,-78
4949,-79
4950,-83
4951,-85
4952,-88
4953,-91
4954,-94
4955,-102
4956,-103
4957,-108
4958,-114
4959,-112
4960,-109
4961,-112
4962,-110
4963,-110
4964,-112
4965,-115
4966,-113
4967,-108
4968,-112
4969,-112
4970,-108
4971,-107
4972,-109
4973,-114
4974,-114
4975,-115
4976,-118
4977,-111
4978,-103
4979,-103
4980,-102
4981,-94
4982,-86
4983,-66
4984,-42
4985,-9
4986,38
4987,85
4988,121
4989,145
4990,151
4991,148
4992,133
4993,112
4994,86
4995,71
4996,63
4997,63
4998,67
4999,66
5000,58
5001,39
5002,9
5003,-17
5004,-22
5005,-9
5006,15
5007,33
5008,23
5009,-8
5010,-56
5011,-85
5012,-107
5013,-110
5014,-109
5015,-116
5016,-118
5017,-125
5018,-131
5019,-135
5020,-136
5021,-138
5022,-133
5023,-134
5024,-132
5025,-131
5026,-128
5027,-131
5028,-130
5029,-136
5030,-136
5031,-135
5032,-137
5033,-137
5034,-137
5035,-137
5036,-137
5037,-137
5038,-138
5039,-139
5040,-143
5041,-145
5042,-143
5043,-139
5044,-140
5045,-140
5046,-141
5047,-143
5048,-146
5049,-149
5050,-148
5051,-151
5052,-153
5053,-152
5054,-146
5055,-149
5056,-150
5057,-150
5058,-152
5059,-156
5060,-151
5061,-152
5062,-155
5063,-152
5064,-152
5065,-155
5066,-153
5067,-152
5068,-152
5069,-148
5070,-148
5071,-144
5072,-141
5073,-142
5074,-137
5075,-136
5076,-138
5077,-136
5078,-129
5079,-128
5080,-125
5081,-119
5082,-115
5083,-110
5084,-107
5085,-104
5086,-104
5087,-97
5088,-95
5089,-95
5090,-90
5091,-83
5092,-87
5093,-87
5094,-88
5095,-87
5096,-88
5097,-84
5098,-79
5099,-80
5100,-78
5101,-79
5102,-83
5103,-83
5104,-83
5105,-83
5106,-84
5107,-84
5108,-78
5109,-84
5110,-81
5111,-80
5112,-85
5113,-86
5114,-88
5115,-83
5116,-82
5117,-80
5118,-75
5119,-77
5120,-79
5121,-83
5122,-82
5123,-82
5124,-75
5125,-78
5126,-76
5127,-74
5128,-74
5129,-78
5130,-80
5131,-74
5132,-73
5133,-72
5134,-67
5135,-66
5136,-68
5137,-65
5138,-64
5139,-71
5140,-68
5141,-68
5142,-66
5143,-66
5144,-62
5145,-58
5146,-57
5147,-53
5148,-47
5149,-51
5150,-46
5151,-42
5152,-35
5153,-32
5154,-28
5155,-26
5156,-25
5157,-22
5158,-20
5159,-20
5160,-19
5161,-20
5162,-22
5163,-25
5164,-30
5165,-31
5166,-36
5167,-41
5168,-45
5169,-48
5170,-45
5171,-47
5172,-51
5173,-54
5174,-52
5175,-60
5176,-66
5177,-69
5178,-71
5179,-75
5180,-72
5181,-69
5182,-67
5183,-69
5184,-70
5185,-70
5186,-73
5187,-67
5188,-70
5189,-67
5190,-64
5191,-67
5192,-63
5193,-66
5194,-67
5195,-65
5196,-66
5197,-66
5198,-58
5199,-59
5200,-52
5201,-48
5202,-37
5203,-19
5204,13
5205,51
5206,100
5207,142
5208,177
5209,192
5210,202
5211,202
5212,189
5213,170
5214,148
5215,137
5216,129
5217,133
5218,137
5219,139
5220,131
5221,114
5222,92
5223,76
5224,79
5225,100
5226,116
5227,122
5228,95
5229,51
5230,10
5231,-22
5232,-42
5233,-46
5234,-51
5235,-58
5236,-62
5237,-69
5238,-70
5239,-73
5240,-74
5241,-69
5242,-75
5243,-72
5244,-73
5245,-70
5246,-71
5247,-72
5248,-73
5249,-76
5250,-73
5251,-77
5252,-76
5253,-80
5254,-75
5255,-70
5256,-75
5257,-76
5258,-75
5259,-79
5260,-83
5261,-81
5262,-83
5263,-86
5264,-84
5265,-83
5266,-86
5267,-86
5268,-89
5269,-92
5270,-89
5271,-91
5272,-91
5273,-94
5274,-95
5275,-97
5276,-100
5277,-105
5278,-102
5279,-102
5280,-103
5281,-101
5282,-100
5283,-100
5284,-105
5285,-106
5286,-105
5287,-104
5288,-103
5289,-103
5290,-102
5291,-96
5292,-98
5293,-99
5294,-100
5295,-93
5296,-93
5297,-91
5298,-90
5299,-86
5300,-80
5301,-79
5302,-73
5303,-70
5304,-71
5305,-68
5306,-66
5307,-60
5308,-57
5309,-56
5310,-53
5311,-49
5312,-51
5313,-55
5314,-52
5315,-51
5316,-52
5317,-49
5318,-47
5319,-49
5320,-53
5321,-52
5322,-53
5323,-54
5324,-58
5325,-57
5326,-57
5327,-58
5328,-55
5329,-58
5330,-62
5331,-60
5332,-61
5333,-66
5334,-67
5335,-64
5336,-62
5337,-64
5338,-62
5339,-66
5340,-69
5341,-70
5342,-68
5343,-68
5344,-68
5345,-66
5346,-67
5347,-64
5348,-65
5349,-68
5350,-69
5351,-68
5352,-65
5353,-65
5354,-63
5355,-62
5356,-64
5357,-67
5358,-65
5359,-64
5360,-66
5361,-62
5362,-66
5363,-64
5364,-63
5365,-63
5366,-61
5367,-62
5368,-59
5369,-55
5370,-51
5371,-42
5372,-40
5373,-35
5374,-36
5375,-30
5376,-34
5377,-32
5378,-34
5379,-29
5380,-23
5381,-24
5382,-24
5383,-28
5384,-32
5385,-36
5386,-40
5387,-43
5388,-43
5389,-44
5390,-47
5391,-47
5392,-49
5393,-52
5394,-56
5395,-58
5396,-62
5397,-67
5398,-71
5399,-68
5400,-70
5401,-70
5402,-70
5403,-71
5404,-74
5405,-76
5406,-74
5407,-76
5408,-74
5409,-71
5410,-72
5411,-70
5412,-70
5413,-71
5414,-73
5415,-69
5416,-68
5417,-70
5418,-66
5419,-64
5420,-62
5421,-55
5422,-49
5423,-35
5424,-18
5425,5
5426,35
5427,76
5428,112
5429,132
5430,146
5431,149
5432,144
5433,138
5434,125
5435,107
5436,96
5437,95
5438,95
5439,97
5440,94
5441,84
5442,68
5443,56
5444,42
5445,46
5446,70
5447,86
5448,85
5449,60
5450,18
5451,-22
5452,-46
5453,-55
5454,-59
5455,-59
5456,-60
5457,-72
5458,-77
5459,-78
5460,-82
5461,-78
5462,-79
5463,-80
5464,-81
5465,-78
5466,-77
5467,-79
5468,-80
5469,-81
5470,-82
5471,-85
5472,-84
5473,-82
5474,-81
5475,-85
5476,-87
5477,-89
5478,-89
5479,-86
5480,-92
5481,-93
5482,-90
5483,-91
5484,-90
5485,-93
5486,-94
5487,-97
5488,-95
5489,-103
5490,-101
5491,-99
5492,-96
5493,-97
5494,-101
5495,-105
5496,-106
5497,-108
5498,-112
5499,-105
5500,-111
5501,-111
5502,-108
5503,-110
5504,-109
5505,-114
5506,-115
5507,-113
5508,-111
5509,-113
5510,-109
5511,-109
5512,-107
5513,-107
5514,-106
5515,-106
5516,-103
5517,-99
5518,-99
5519,-96
5520,-90
5521,-86
5522,-83
5523,-82
5524,-80
5525,-80
5526,-82
5527,-79
5528,-74
5529,-73
5530,-74
5531,-67
5532,-74
5533,-76
5534,-76
5535,-78
5536,-77
5537,-76
5538,-79
5539,-79
5540,-79
5541,-77
5542,-79
5543,-85
5544,-84
5545,-81
5546,-84
5547,-87
5548,-87
5549,-88
5550,-87
5551,-91
5552,-87
5553,-87
5554,-85
5555,-84
5556,-83
5557,-86
5558,-92
5559,-98
5560,-99
5561,-107
5562,-98
5563,-96
5564,-96
5565,-95
5566,-96
5567,-96
5568,-95
5569,-96
5570,-98
5571,-99
5572,-94
5573,-94
5574,-92
5575,-85
5576,-84
5577,-84
5578,-87
5579,-92
5580,-96
5581,-99
5582,-98
5583,-94
5584,-96
5585,-95
5586,-97
5587,-98
5588,-93
5589,-91
5590,-84
5591,-83
5592,-74
5593,-71
5594,-70
5595,-64
5596,-61
5597,-62
5598,-61
5599,-57
5600,-58
5601,-57
5602,-50
5603,-55
5604,-60
5605,-64
5606,-69
5607,-69
5608,-76
5609,-78
5610,-82
5611,-83
5612,-79
5613,-81
5614,-86
5615,-91
5616,-95
5617,-96
5618,-103
5619,-100
5620,-98
5621,-102
5622,-103
5623,-107
5624,-108
5625,-107
5626,-107
5627,-106
5628,-104
5629,-102
5630,-101
5631,-101
5632,-108
5633,-106
5634,-105
5635,-106
5636,-102
5637,-104
5638,-103
5639,-97
5640,-96
5641,-95
5642,-93
5643,-87
5644,-72
5645,-49
5646,-19
5647,16
5648,54
5649,92
5650,110
5651,121
5652,120
5653,115
5654,102
5655,90
5656,73
5657,65
5658,59
5659,57
5660,59
5661,56
5662,41
5663,22
5664,0
5665,-11
5666,0
5667,20
5668,35
5669,31
5670,10
5671,-32
5672,-71
5673,-85
5674,-93
5675,-91
5676,-93
5677,-101
5678,-108
5679,-115
5680,-117
5681,-116
5682,-117
5683,-114
5684,-117
5685,-117
5686,-115
5687,-118
5688,-117
5689,-118
5690,-116
5691,-117
5692,-112
5693,-111
5694,-116
5695,-112
5696,-118
5697,-118
5698,-123
5699,-120
5700,-125
5701,-124
5702,-124
5703,-120
5704,-121
5705,-125
5706,-123
5707,-127
5708,-127
5709,-128
5710,-124
5711,-128
5712,-127
5713,-130
5714,-130
5715,-135
5716,-133
5717,-130
5718,-133
5719,-136
5720,-133
5721,-132
5722,-133
5723,-134
5724,-138
5725,-140
5726,-139
5727,-138
5728,-136
5729,-132
5730,-134
5731,-135
5732,-132
5733,-134
5734,-131
5735,-133
5736,-131
5737,-128
5738,-123
5739,-123
5740,-120
5741,-116
5742,-112
5743,-112
5744,-113
5745,-106
5746,-103
5747,-102
5748,-95
5749,-92
5750,-93
5751,-94
5752,-91
5753,-90
5754,-91
5755,-90
5756,-85
5757,-83
5758,-84
5759,-85
5760,-87
5761,-91
5762,-89
5763,-92
5764,-92
5765,-89
5766,-91
5767,-87
5768,-88
5769,-93
5770,-91
5771,-95
5772,-96
5773,-94
5774,-95
5775,-93
5776,-96
5777,-95
5778,-98
5779,-98
5780,-102
5781,-99
5782,-96
5783,-96
5784,-96
5785,-98
5786,-101
5787,-98
5788,-100
5789,-97
5790,-98
5791,-98
5792,-96
5793,-96
5794,-93
5795,-90
5796,-94
5797,-93
5798,-93
5799,-94
5800,-93
5801,-94
5802,-91
5803,-90
5804,-92
5805,-92
5806,-92
5807,-93
5808,-91
5809,-87
5810,-82
5811,-76
5812,-81
5813,-75
5814,-68
5815,-71
5816,-65
5817,-68
5818,-67
5819,-62
5820,-56
5821,-55
5822,-56
5823,-57
5824,-64
5825,-67
5826,-68
5827,-68
5828,-70
5829,-73
5830,-72
5831,-73
5832,-78
5833,-79
5834,-82
5835,-87
5836,-89
5837,-91
5838,-96
5839,-92
5840,-95
5841,-97
5842,-96
5843,-98
5844,-97
5845,-97
5846,-98
5847,-96
5848,-96
5849,-96
5850,-91
5851,-92
5852,-96
5853,-92
5854,-92
5855,-94
5856,-92
5857,-91
5858,-90
5859,-88
5860,-88
5861,-87
5862,-83
5863,-73
5864,-62
5865,-42
5866,-16
5867,16
5868,48
5869,80
5870,99
5871,109
5872,109
5873,112
5874,104
5875,94
5876,82
5877,73
5878,68
5879,63
5880,63
5881,63
5882,57
5883,46
5884,34
5885,19
5886,23
5887,35
5888,45
5889,51
5890,38
5891,6
5892,-31
5893,-52
5894,-64
5895,-69
5896,-71
5897,-74
5898,-87
5899,-89
5900,-95
5901,-92
5902,-95
5903,-95
5904,-93
5905,-92
5906,-93
5907,-95
5908,-95
5909,-93
5910,-99
5911,-97
5912,-96
5913,-97
5914,-98
5915,-95
5916,-96
5917,-98
5918,-99
5919,-97
5920,-100
5921,-100
5922,-101
5923,-100
5924,-102
5925,-104
5926,-106
5927,-105
5928,-107
5929,-104
5930,-107
5931,-111
5932,-108
5933,-110
5934,-112
5935,-115
5936,-116
5937,-115
5938,-115
5939,-117
5940,-117
5941,-115
5942,-115
5943,-117
5944,-117
5945,-123
5946,-121
5947,-120
5948,-120
5949,-118
5950,-115
5951,-114
5952,-113
5953,-116
5954,-116
5955,-116
5956,-114
5957,-113
5958,-108
5959,-107
5960,-106
5961,-106
5962,-106
5963,-103
5964,-99
5965,-99
5966,-92
5967,-92
5968,-88
5969,-88
5970,-88
5971,-83
5972,-87
5973,-88
5974,-82
5975,-85
5976,-83
5977,-78
5978,-82
5979,-82
5980,-88
5981,-86
5982,-90
5983,-88
5984,-85
5985,-84
5986,-84
5987,-85
5988,-88
5989,-93
5990,-92
5991,-96
5992,-89
5993,-91
5994,-86
5995,-87
5996,-87
5997,-87
5998,-91
5999,-94
6000,-97
6001,-92
6002,-100
6003,-101
6004,-97
6005,-94
6006,-94
6007,-95
6008,-96
6009,-102
6010,-101
6011,-98
6012,-96
6013,-97
6014,-95
6015,-97
6016,-96
6017,-96
6018,-95
6019,-94
6020,-95
6021,-98
6022,-95
6023,-90
6024,-95
6025,-94
6026,-96
6027,-95
6028,-93
6029,-91
6030,-87
6031,-83
6032,-82
6033,-80
6034,-78
6035,-76
6036,-73
6037,-76
6038,-71
6039,-69
6040,-64
6041,-62
6042,-61
6043,-57
6044,-64
6045,-72
6046,-70
6047,-73
6048,-74
6049,-79
6050,-78
6051,-79
6052,-81
6053,-85
6054,-90
6055,-90
6056,-91
6057,-94
6058,-99
6059,-102
6060,-102
6061,-104
6062,-105
6063,-107
6064,-104
6065,-108
6066,-106
6067,-102
6068,-103
6069,-104
6070,-104
6071,-105
6072,-101
6073,-103
6074,-101
6075,-103
6076,-102
6077,-98
6078,-100
6079,-98
6080,-96
6081,-93
6082,-95
6083,-92
6084,-87
6085,-73
6086,-59
6087,-31
6088,3
6089,39
6090,75
6091,98
6092,108
6093,115
6094,112
6095,101
6096,82
6097,69
6098,60
6099,53
6100,53
6101,60
6102,52
6103,42
6104,25
6105,6
6106,-7
6107,5
6108,28
6109,38
6110,32
6111,7
6112,-31
6113,-65
6114,-80
6115,-85
6116,-78
6117,-85
6118,-90
6119,-102
6120,-101
6121,-100
6122,-101
6123,-99
6124,-100
6125,-101
6126,-99
6127,-101
6128,-100
6129,-98
6130,-96
6131,-99
6132,-99
6133,-94
6134,-99
6135,-95
6136,-99
6137,-98
6138,-97
6139,-98
6140,-100
6141,-101
6142,-101
6143,-102
6144,-99
6145,-103
6146,-104
6147,-107
6148,-104
6149,-106
6150,-104
6151,-101
6152,-104
6153,-104
6154,-102
6155,-107
6156,-108
6157,-109
6158,-109
6159,-111
6160,-110
6161,-108
6162,-109
6163,-110
6164,-111
6165,-112
6166,-111
6167,-112
6168,-111
6169,-114
6170,-113
6171,-109
6172,-111
6173,-111
6174,-109
6175,-105
6176,-108
6177,-104
6178,-103
6179,-102
6180,-100
6181,-97
6182,-98
6183,-95
6184,-91
6185,-91
6186,-86
6187,-83
6188,-78
6189,-80
6190,-77
6191,-73
6192,-73
6193,-71
6194,-68
6195,-73
6196,-70
6197,-68
6198,-66
6199,-63
6200,-64
6201,-65
6202,-69
6203,-67
6204,-65
6205,-68
6206,-67
6207,-64
6208,-66
6209,-70
6210,-71
6211,-72
6212,-72
6213,-73
6214,-72
6215,-69
6216,-70
6217,-66
6218,-67
6219,-73
6220,-76
6221,-74
6222,-72
6223,-74
6224,-67
6225,-68
6226,-69
6227,-69
6228,-70
6229,-69
6230,-72
6231,-69
6232,-68
6233,-69
6234,-70
6235,-66
6236,-65
6237,-65
6238,-64
6239,-64
6240,-66
6241,-64
6242,-62
6243,-59
6244,-61
6245,-60
6246,-64
6247,-64
6248,-63
6249,-64
6250,-62
6251,-63
6252,-60
6253,-54
6254,-49
6255,-51
6256,-52
6257,-48
6258,-44
6259,-41
6260,-37
6261,-33
6262,-33
6263,-32
6264,-31
6265,-28
6266,-29
6267,-29
6268,-35
6269,-33
6270,-35
6271,-36
6272,-40
6273,-39
6274,-44
6275,-48
6276,-48
6277,-51
6278,-51
6279,-52
6280,-55
6281,-56
6282,-61
6283,-65
6284,-66
6285,-67
6286,-70
6287,-64
6288,-63
6289,-64
6290,-64
6291,-65
6292,-64
6293,-64
6294,-67
6295,-62
6296,-63
6297,-64
6298,-61
6299,-61
6300,-62
6301,-62
6302,-61
6303,-59
6304,-61
6305,-60
6306,-61
6307,-55
6308,-47
6309,-39
6310,-19
6311,5
6312,41
6313,76
6314,103
6315,124
6316,134
6317,139
6318,140
6319,127
6320,109
6321,95
6322,90
6323,86
6324,93
6325,97
6326,96
6327,85
6328,70
6329,54
6330,50
6331,60
6332,79
6333,90
6334,81
6335,56
6336,16
6337,-19
6338,-39
6339,-48
6340,-51
6341,-51
6342,-58
6343,-67
6344,-68
6345,-64
6346,-68
6347,-66
6348,-66
6349,-69
6350,-68
6351,-68
6352,-64
6353,-63
6354,-62
6355,-62
6356,-71
6357,-66
6358,-64
6359,-66
6360,-68
6361,-66
6362,-65
6363,-64
6364,-68
6365,-69
6366,-70
6367,-72
6368,-73
6369,-74
6370,-75
6371,-74
6372,-72
6373,-77
6374,-74
6375,-78
6376,-81
6377,-79
6378,-78
6379,-82
6380,-82
6381,-81
6382,-85
6383,-85
6384,-85
6385,-85
6386,-83
6387,-84
6388,-85
6389,-84
6390,-83
6391,-80
6392,-83
6393,-88
6394,-85
6395,-80
6396,-83
6397,-81
6398,-81
6399,-76
6400,-79
6401,-75
6402,-76
6403,-74
6404,-69
6405,-69
6406,-64
6407,-63
6408,-56
6409,-55
6410,-52
6411,-49
6412,-49
6413,-51
6414,-46
6415,-42
6416,-38
6417,-35
6418,-35
6419,-37
6420,-40
6421,-40
6422,-40
6423,-40
6424,-34
6425,-32
6426,-33
6427,-35
6428,-36
6429,-37
6430,-37
6431,-40
6432,-38
6433,-42
6434,-38
6435,-37
6436,-40
6437,-38
6438,-42
6439,-44
6440,-43
6441,-46
6442,-43
6443,-45
6444,-40
6445,-41
6446,-43
6447,-40
6448,-44
6449,-44
6450,-48
6451,-46
6452,-45
6453,-43
6454,-39
6455,-44
6456,-47
6457,-46
6458,-46
6459,-44
6460,-42
6461,-44
6462,-39
6463,-43
6464,-42
6465,-42
6466,-39
6467,-43
6468,-43
6469,-41
6470,-42
6471,-39
6472,-36
6473,-39
6474,-39
6475,-37
6476,-38
6477,-35
6478,-31
6479,-23
6480,-23
6481,-22
6482,-15
6483,-16
6484,-15
6485,-12
6486,-16
6487,-11
6488,-8
6489,-6
6490,-6
6491,-9
6492,-10
6493,-14
6494,-16
6495,-21
6496,-22
6497,-21
6498,-21
6499,-26
6500,-29
6501,-28
6502,-34
6503,-37
6504,-40
6505,-42
6506,-46
6507,-47
6508,-44
6509,-46
6510,-45
6511,-48
6512,-50
6513,-50
6514,-52
6515,-48
6516,-49
6517,-48
6518,-47
6519,-49
6520,-50
6521,-51
6522,-46
6523,-40
6524,-51
6525,-46
6526,-44
6527,-41
6528,-40
6529,-37
6530,-40
6531,-35
6532,-21
6533,0
6534,23
6535,54
6536,92
6537,117
6538,135
6539,139
6540,138
6541,134
6542,124
6543,108
6544,98
6545,95
6546,94
6547,95
6548,100
6549,99
6550,87
6551,77
6552,66
6553,54
6554,59
6555,81
6556,99
6557,98
6558,72
6559,36
6560,-2
6561,-24
6562,-32
6563,-34
6564,-35
6565,-40
6566,-48
6567,-53
6568,-58
6569,-57
6570,-59
6571,-57
6572,-57
6573,-55
6574,-54
6575,-57
6576,-57
6577,-58
6578,-58
6579,-59
6580,-56
6581,-57
6582,-54
6583,-55
6584,-58
6585,-60
6586,-63
6587,-61
6588,-63
6589,-64
6590,-62
6591,-65
6592,-68
6593,-65
6594,-66
6595,-69
6596,-70
6597,-69
6598,-76
6599,-74
6600,-73
6601,-72
6602,-77
6603,-79
6604,-82
6605,-84
6606,-88
6607,-86
6608,-88
6609,-86
6610,-85
6611,-85
6612,-84
6613,-85
6614,-89
6615,-89
6616,-90
6617,-87
6618,-88
6619,-88
6620,-85
6621,-84
6622,-85
6623,-84
6624,-86
6625,-82
6626,-79
6627,-73
6628,-72
6629,-70
6630,-70
6631,-67
6632,-64
6633,-61
6634,-61
6635,-57
6636,-53
6637,-47
6638,-54
6639,-45
6640,-48
6641,-48
6642,-50
6643,-48
6644,-44
6645,-45
6646,-43
6647,-44
6648,-44
6649,-46
6650,-47
6651,-48
6652,-48
6653,-44
6654,-44
6655,-44
6656,-44
6657,-44
6658,-48
6659,-52
6660,-51
6661,-56
6662,-55
6663,-52
6664,-48
6665,-55
6666,-51
6667,-54
6668,-54
6669,-55
6670,-55
6671,-54
6672,-59
6673,-53
6674,-54
6675,-54
6676,-55
6677,-52
6678,-53
6679,-49
6680,-56
6681,-50
6682,-50
6683,-50
6684,-51
6685,-52
6686,-52
6687,-53
6688,-55
6689,-55
6690,-52
6691,-49
6692,-51
6693,-52
6694,-53
6695,-54
6696,-52
6697,-52
6698,-48
6699,-48
6700,-47
6701,-45
6702,-47
6703,-45
6704,-44
6705,-40
6706,-41
6707,-35
6708,-32
6709,-29
6710,-25
6711,-22
6712,-21
6713,-19
6714,-16
6715,-18
6716,-16
6717,-19
6718,-19
6719,-25
6720,-26
6721,-32
6722,-32
6723,-34
6724,-37
6725,-44
6726,-44
6727,-44
6728,-47
6729,-47
6730,-51
6731,-55
6732,-62
6733,-63
6734,-64
6735,-67
6736,-64
6737,-66
6738,-66
6739,-67
6740,-70
6741,-68
6742,-72
6743,-73
6744,-71
6745,-75
6746,-70
6747,-70
6748,-70
6749,-68
6750,-71
6751,-75
6752,-72
6753,-73
6754,-67
6755,-68
6756,-63
6757,-60
6758,-54
6759,-44
6760,-29
6761,-6
6762,25
6763,65
6764,103
6765,121
6766,122
6767,124
6768,118
6769,104
6770,89
6771,76
6772,66
6773,60
6774,62
6775,67
6776,66
6777,58
6778,37
6779,25
6780,8
6781,11
6782,26
6783,48
6784,53
6785,33
6786,0
6787,-33
6788,-58
6789,-70
6790,-73
6791,-77
6792,-81
6793,-87
6794,-93
6795,-95
6796,-98
6797,-93
6798,-99
6799,-102
6800,-104
6801,-106
6802,-101
6803,-98
6804,-95
6805,-96
6806,-98
6807,-99
6808,-101
6809,-104
6810,-100
6811,-94
6812,-98
6813,-100
6814,-99
6815,-100
6816,-103
6817,-102
6818,-103
6819,-101
6820,-106
6821,-100
6822,-103
6823,-99
6824,-103
6825,-105
6826,-105
6827,-116
6828,-124
6829,-123
6830,-125
6831,-123
6832,-126
6833,-126
6834,-125
6835,-127
6836,-128
6837,-124
6838,-124
6839,-121
6840,-122
6841,-114
6842,-118
6843,-124
6844,-120
6845,-120
6846,-119
6847,-117
6848,-115
6849,-112
6850,-108
6851,-108
6852,-110
6853,-111
6854,-104
6855,-104
6856,-102
6857,-98
6858,-96
6859,-97
6860,-93
6861,-92
6862,-92
6863,-87
6864,-84
6865,-84
6866,-83
6867,-78
6868,-78
6869,-81
6870,-79
6871,-78
6872,-81
6873,-80
6874,-80
6875,-78
6876,-77
6877,-83
6878,-83
6879,-84
6880,-84
6881,-83
6882,-86
6883,-83
6884,-85
6885,-86
6886,-85
6887,-84
6888,-86
6889,-87
6890,-87
6891,-88
6892,-86
6893,-84
6894,-80
6895,-83
6896,-82
6897,-77
6898,-74
6899,-77
6900,-77
6901,-78
6902,-82
6903,-84
6904,-84
6905,-91
6906,-93
6907,-95
6908,-90
6909,-87
6910,-85
6911,-82
6912,-78
6913,-78
6914,-78
6915,-79
6916,-82
6917,-78
6918,-78
6919,-81
6920,-75
6921,-75
6922,-71
6923,-70
6924,-67
6925,-70
6926,-73
6927,-81
6928,-81
6929,-80
6930,-78
6931,-70
6932,-66
6933,-62
6934,-59
6935,-57
6936,-53
6937,-48
6938,-50
6939,-42
6940,-42
6941,-40
6942,-41
6943,-41
6944,-42
6945,-46
6946,-50
6947,-50
6948,-53
6949,-57
6950,-57
6951,-64
6952,-62
6953,-64
6954,-68
6955,-67
6956,-72
6957,-72
6958,-79
6959,-82
6960,-84
6961,-88
6962,-91
6963,-91
6964,-89
6965,-84
6966,-85
6967,-92
6968,-86
6969,-87
6970,-86
6971,-93
6972,-94
6973,-93
6974,-94
6975,-87
6976,-84
6977,-83
6978,-81
6979,-81
6980,-86
6981,-88
6982,-86
6983,-78
6984,-65
6985,-48
6986,-35
6987,-12
6988,17
6989,55
6990,85
6991,110
6992,120
6993,119
6994,111
6995,100
6996,82
6997,67
6998,52
6999,49
7000,48
7001,49
7002,49
7003,37
7004,22
7005,7
7006,-10
7007,-10
7008,11
7009,31
7010,34
7011,23
7012,-8
7013,-45
7014,-63
7015,-81
7016,-84
7017,-86
7018,-87
7019,-99
7020,-108
7021,-108
7022,-103
7023,-105
7024,-105
7025,-103
7026,-106
7027,-104
7028,-104
7029,-106
7030,-113
7031,-105
7032,-106
7033,-104
7034,-108
7035,-107
7036,-116
7037,-117
7038,-113
7039,-117
7040,-115
7041,-115
7042,-114
7043,-115
7044,-118
7045,-120
7046,-119
7047,-121
7048,-122
7049,-122
7050,-122
7051,-127
7052,-127
7053,-128
7054,-127
7055,-127
7056,-131
7057,-133
7058,-128
7059,-124
7060,-130
7061,-131
7062,-132
7063,-136
7064,-132
7065,-137
7066,-135
7067,-135
7068,-135
7069,-133
7070,-137
7071,-137
7072,-138
7073,-138
7074,-133
7075,-133
7076,-128
7077,-130
7078,-125
7079,-125
7080,-125
7081,-123
7082,-125
7083,-124
7084,-118
7085,-115
7086,-113
7087,-109
7088,-110
7089,-109
7090,-109
7091,-105
7092,-106
7093,-104
7094,-98
7095,-97
7096,-100
7097,-100
7098,-101
7099,-103
7100,-107
7101,-106
7102,-103
7103,-105
7104,-107
7105,-107
7106,-109
7107,-117
7108,-114
7109,-112
7110,-115
7111,-116
7112,-116
7113,-118
7114,-116
7115,-115
7116,-117
7117,-118
7118,-123
7119,-121
7120,-119
7121,-117
7122,-117
7123,-116
7124,-118
7125,-123
7126,-125
7127,-127
7128,-125
7129,-123
7130,-120
7131,-120
7132,-118
7133,-124
7134,-125
7135,-126
7136,-126
7137,-128
7138,-126
7139,-126
7140,-128
7141,-124
7142,-122
7143,-121
7144,-119
7145,-122
7146,-122
7147,-123
7148,-123
7149,-118
7150,-117
7151,-116
7152,-116
7153,-117
7154,-119
7155,-114
7156,-106
7157,-105
7158,-100
7159,-97
7160,-90
7161,-87
7162,-88
7163,-85
7164,-88
7165,-89
7166,-82
7167,-83
7168,-85
7169,-86
7170,-90
7171,-95
7172,-100
7173,-101
7174,-103
7175,-108
7176,-103
7177,-101
7178,-108
7179,-108
7180,-113
7181,-115
7182,-118
7183,-127
7184,-125
7185,-123
7186,-125
7187,-128
7188,-124
7189,-127
7190,-128
7191,-131
7192,-128
7193,-123
7194,-123
7195,-126
7196,-120
7197,-124
7198,-124
7199,-125
7200,-119
7201,-120
7202,-115
7203,-115
7204,-115
7205,-113
7206,-110
7207,-110
7208,-102
7209,-86
7210,-69
7211,-40
7212,-3
7213,42
7214,88
7215,110
7216,124
7217,126
7218,127
7219,116
7220,98
7221,79
7222,65
7223,61
7224,56
7225,58
7226,55
7227,37
7228,18
7229,-5
7230,-16
7231,-12
7232,7
7233,17
7234,7
7235,-20
7236,-65
7237,-96
7238,-111
7239,-114
7240,-111
7241,-114
7242,-122
7243,-129
7244,-136
7245,-139
7246,-135
7247,-134
7248,-135
7249,-129
7250,-124
7251,-127
7252,-123
7253,-125
7254,-129
7255,-129
7256,-131
7257,-133
7258,-130
7259,-128
7260,-134
7261,-135
7262,-135
7263,-138
7264,-133
7265,-133
7266,-132
7267,-137
7268,-134
7269,-135
7270,-137
7271,-137
7272,-143
7273,-143
7274,-145
7275,-152
7276,-147
7277,-148
7278,-144
7279,-145
7280,-151
7281,-155
7282,-154
7283,-158
7284,-160
7285,-155
7286,-155
7287,-158
7288,-159
7289,-160
7290,-159
7291,-160
7292,-162
7293,-166
7294,-163
7295,-156
7296,-152
7297,-157
7298,-157
7299,-157
7300,-159
7301,-159
7302,-156
7303,-155
7304,-149
7305,-152
7306,-149
7307,-145
7308,-143
7309,-138
7310,-135
7311,-133
7312,-135
7313,-128
7314,-122
7315,-120
7316,-118
7317,-123
7318,-122
7319,-119
7320,-116
7321,-117
7322,-117
7323,-111
7324,-112
7325,-117
7326,-117
7327,-116
7328,-114
7329,-116
7330,-115
7331,-117
7332,-114
7333,-111
7334,-117
7335,-115
7336,-119
7337,-118
7338,-118
7339,-118
7340,-116
7341,-112
7342,-117
7343,-118
7344,-116
7345,-121
7346,-121
7347,-121
7348,-118
7349,-116
7350,-113
7351,-114
7352,-113
7353,-117
7354,-114
7355,-117
7356,-116
7357,-114
7358,-111
7359,-110
7360,-108
7361,-109
7362,-106
7363,-113
7364,-110
7365,-110
7366,-107
7367,-108
7368,-107
7369,-103
7370,-102
7371,-100
7372,-101
7373,-96
7374,-92
7375,-87
7376,-82
7377,-76
7378,-76
7379,-72
7380,-70
7381,-72
7382,-66
7383,-66
7384,-61
7385,-54
7386,-53
7387,-58
7388,-60
7389,-62
7390,-60
7391,-65
7392,-68
7393,-73
7394,-71
7395,-72
7396,-65
7397,-72
7398,-80
7399,-83
7400,-86
7401,-89
7402,-89
7403,-91
7404,-90
7405,-91
7406,-88
7407,-89
7408,-91
7409,-88
7410,-87
7411,-89
7412,-84
7413,-82
7414,-84
7415,-80
7416,-79
7417,-84
7418,-84
7419,-81
7420,-80
7421,-78
7422,-75
7423,-71
7424,-73
7425,-73
7426,-66
7427,-61
7428,-50
7429,-34
7430,-4
7431,31
7432,74
7433,126
7434,161
7435,185
7436,205
7437,209
7438,209
7439,197
7440,176
7441,158
7442,150
7443,146
7444,146
7445,145
7446,143
7447,125
7448,103
7449,85
7450,79
7451,91
7452,103
7453,114
7454,96
7455,55
7456,8
7457,-31
7458,-54
7459,-57
7460,-58
7461,-61
7462,-68
7463,-78
7464,-81
7465,-81
7466,-84
7467,-81
7468,-81
7469,-80
7470,-77
7471,-82
7472,-80
7473,-83
7474,-82
7475,-84
7476,-80
7477,-78
7478,-78
7479,-78
7480,-79
7481,-84
7482,-89
7483,-86
7484,-88
7485,-83
7486,-86
7487,-86
7488,-88
7489,-93
7490,-89
7491,-93
7492,-95
7493,-96
7494,-93
7495,-96
7496,-91
7497,-94
7498,-101
7499,-102
7500,-105
7501,-109
7502,-106
7503,-104
7504,-105
7505,-108
7506,-106
7507,-107
7508,-106
7509,-109
7510,-112
7511,-110
7512,-114
7513,-110
7514,-111
7515,-108
7516,-106
7517,-103
7518,-103
7519,-106
7520,-107
7521,-100
7522,-101
7523,-97
7524,-96
7525,-92
7526,-92
7527,-89
7528,-87
7529,-84
7530,-76
7531,-72
7532,-66
7533,-64
7534,-64
7535,-65
7536,-62
7537,-58
7538,-59
7539,-57
7540,-55
7541,-56
7542,-53
7543,-52
7544,-52
7545,-54
7546,-61
7547,-59
7548,-60
7549,-59
7550,-57
7551,-56
7552,-57
7553,-60
7554,-59
7555,-62
7556,-63
7557,-62
7558,-62
7559,-62
7560,-59
7561,-63
7562,-67
7563,-67
7564,-65
7565,-67
7566,-66
7567,-62
7568,-67
7569,-63
7570,-65
7571,-64
7572,-62
7573,-61
7574,-63
7575,-66
7576,-62
7577,-61
7578,-55
7579,-57
7580,-59
7581,-57
7582,-63
7583,-61
7584,-59
7585,-61
7586,-60
7587,-55
7588,-56
7589,-58
7590,-58
7591,-57
7592,-62
7593,-55
7594,-53
7595,-55
7596,-55
7597,-50
7598,-52
7599,-51
7600,-48
7601,-43
7602,-41
7603,-36
7604,-31
7605,-30
7606,-27
7607,-21
7608,-18
7609,-20
7610,-16
7611,-15
7612,-12
7613,-8
7614,-12
7615,-17
7616,-20
7617,-27
7618,-26
7619,-32
7620,-36
7621,-36
7622,-34
7623,-36
7624,-39
7625,-45
7626,-46
7627,-50
7628,-58
7629,-65
7630,-61
7631,-63
7632,-64
7633,-60
7634,-61
7635,-60
7636,-63
7637,-64
7638,-66
7639,-62
7640,-64
7641,-59
7642,-63
7643,-59
7644,-61
7645,-59
7646,-57
7647,-62
7648,-56
7649,-61
7650,-54
7651,-49
7652,-47
7653,-41
7654,-31
7655,-20
7656,1
7657,32
7658,73
7659,115
7660,154
7661,179
7662,191
7663,192
7664,186
7665,177
7666,162
7667,148
7668,141
7669,138
7670,142
7671,140
7672,138
7673,128
7674,112
7675,98
7676,81
7677,81
7678,101
7679,120
7680,118
7681,102
7682,63
7683,13
7684,-18
7685,-37
7686,-43
7687,-44
7688,-50
7689,-57
7690,-66
7691,-72
7692,-70
7693,-72
7694,-71
7695,-72
7696,-71
7697,-67
7698,-66
7699,-67
7700,-70
7701,-74
7702,-73
7703,-71
7704,-71
7705,-74
7706,-71
7707,-68
7708,-71
7709,-74
7710,-74
7711,-76
7712,-80
7713,-78
7714,-77
7715,-77
7716,-81
7717,-79
7718,-86
7719,-87
7720,-86
7721,-89
7722,-87
7723,-88
7724,-90
7725,-90
7726,-93
7727,-91
7728,-96
7729,-99
7730,-98
7731,-95
7732,-97
7733,-98
7734,-99
7735,-98
7736,-102
7737,-101
7738,-104
7739,-104
7740,-103
7741,-99
7742,-98
7743,-92
7744,-95
7745,-95
7746,-95
7747,-93
7748,-92
7749,-88
7750,-86
7751,-82
7752,-82
7753,-76
7754,-73
7755,-73
7756,-73
7757,-67
7758,-65
7759,-61
7760,-57
7761,-57
7762,-55
7763,-55
7764,-51
7765,-51
7766,-48
7767,-53
7768,-49
7769,-51
7770,-44
7771,-43
7772,-48
7773,-48
7774,-48
7775,-57
7776,-54
7777,-55
7778,-52
7779,-51
7780,-50
7781,-50
7782,-56
7783,-60
7784,-60
7785,-56
7786,-60
7787,-57
7788,-58
7789,-58
7790,-63
7791,-60
7792,-64
7793,-63
7794,-62
7795,-64
7796,-68
7797,-63
7798,-59
7799,-62
7800,-62
7801,-64
7802,-62
7803,-64
7804,-62
7805,-63
7806,-61
7807,-60
7808,-59
7809,-58
7810,-61
7811,-60
7812,-58
7813,-61
7814,-59
7815,-56
7816,-58
7817,-58
7818,-59
7819,-59
7820,-60
7821,-59
7822,-60
7823,-60
7824,-56
7825,-56
7826,-55
7827,-52
7828,-53
7829,-54
7830,-48
7831,-45
7832,-43
7833,-39
7834,-36
7835,-32
7836,-33
7837,-27
7838,-22
7839,-23
7840,-24
7841,-22
7842,-16
7843,-17
7844,-22
7845,-27
7846,-29
7847,-33
7848,-36
7849,-39
7850,-41
7851,-44
7852,-44
7853,-45
7854,-48
7855,-52
7856,-55
7857,-59
7858,-61
7859,-71
7860,-72
7861,-71
7862,-69
7863,-71
7864,-71
7865,-75
7866,-72
7867,-73
7868,-74
7869,-73
7870,-72
7871,-64
7872,-67
7873,-68
7874,-70
7875,-70
7876,-71
7877,-68
7878,-66
7879,-60
7880,-62
7881,-60
7882,-56
7883,-49
7884,-42
7885,-26
7886,4
7887,41
7888,82
7889,118
7890,146
7891,158
7892,164
7893,162
7894,154
7895,146
7896,130
7897,119
7898,116
7899,116
7900,116
7901,120
7902,112
7903,101
7904,83
7905,71
7906,66
7907,79
7908,100
7909,113
7910,100
7911,67
7912,23
7913,-20
7914,-41
7915,-48
7916,-46
7917,-49
7918,-53
7919,-68
7920,-75
7921,-72
7922,-73
7923,-74
7924,-73
7925,-71
7926,-71
7927,-71
7928,-70
7929,-75
7930,-73
7931,-72
7932,-74
7933,-76
7934,-74
7935,-71
7936,-72
7937,-73
7938,-73
7939,-76
7940,-83
7941,-79
7942,-78
7943,-82
7944,-80
7945,-83
7946,-81
7947,-84
7948,-85
7949,-90
7950,-90
7951,-89
7952,-86
7953,-88
7954,-88
7955,-91
7956,-95
7957,-98
7958,-99
7959,-102
7960,-102
7961,-99
7962,-98
7963,-102
7964,-100
7965,-102
7966,-102
7967,-105
7968,-100
7969,-98
7970,-101
7971,-95
7972,-94
7973,-93
7974,-96
7975,-93
7976,-93
7977,-92
7978,-87
7979,-85
7980,-83
7981,-82
7982,-78
7983,-77
7984,-76
7985,-72
7986,-70
7987,-64
7988,-63
7989,-54
7990,-54
7991,-49
7992,-48
7993,-48
7994,-48
7995,-45
7996,-45
7997,-46
7998,-43
7999,-41
8000,-42
8001,-42
8002,-43
8003,-47
8004,-46
8005,-43
8006,-44
8007,-44
8008,-43
8009,-47
8010,-48
8011,-49
8012,-49
8013,-52
8014,-50
8015,-48
8016,-49
8017,-46
8018,-48
8019,-49
8020,-49
8021,-52
8022,-50
8023,-53
8024,-51
8025,-50
8026,-49
8027,-52
8028,-52
8029,-50
8030,-54
8031,-52
8032,-51
8033,-53
8034,-52
8035,-52
8036,-51
8037,-52
8038,-50
8039,-53
8040,-57
8041,-52
8042,-51
8043,-51
8044,-53
8045,-48
8046,-50
8047,-48
8048,-51
8049,-52
8050,-52
8051,-54
8052,-50
8053,-52
8054,-48
8055,-46
8056,-51
8057,-49
8058,-57
8059,-50
8060,-49
8061,-51
8062,-44
8063,-42
8064,-35
8065,-32
8066,-30
8067,-29
8068,-29
8069,-24
8070,-21
8071,-15
8072,-12
8073,-9
8074,-7
8075,-12
8076,-15
8077,-17
8078,-23
8079,-23
8080,-26
8081,-27
8082,-29
8083,-33
8084,-37
8085,-38
8086,-42
8087,-46
8088,-48
8089,-50
8090,-52
8091,-56
8092,-60
8093,-64
8094,-67
8095,-66
8096,-63
8097,-68
8098,-63
8099,-62
8100,-62
8101,-64
8102,-67
8103,-67
8104,-68
8105,-68
8106,-70
8107,-68
8108,-62
8109,-62
8110,-61
8111,-63
8112,-66
8113,-62
8114,-61
8115,-54
8116,-42
8117,-29
8118,-9
8119,20
8120,54
8121,91
8122,124
8123,146
8124,156
8125,162
8126,158
8127,149
8128,132
8129,117
8130,108
8131,101
8132,96
8133,102
8134,101
8135,99
8136,86
8137,67
8138,50
8139,47
8140,63
8141,79
8142,83
8143,65
8144,24
8145,-12
8146,-36
8147,-48
8148,-52
8149,-53
8150,-58
8151,-69
8152,-75
8153,-76
8154,-75
8155,-76
8156,-69
8157,-74
8158,-72
8159,-74
8160,-74
8161,-73
8162,-74
8163,-71
8164,-71
8165,-74
8166,-72
8167,-75
8168,-75
8169,-74
8170,-77
8171,-76
8172,-78
8173,-78
8174,-79
8175,-80
8176,-80
8177,-81
8178,-83
8179,-84
8180,-85
8181,-89
8182,-86
8183,-87
8184,-88
8185,-87
8186,-88
8187,-95
8188,-94
8189,-94
8190,-95
8191,-97
8192,-96
8193,-96
8194,-100
8195,-97
8196,-98
8197,-99
8198,-101
8199,-97
8200,-96
8201,-96
8202,-98
8203,-98
8204,-99
8205,-99
8206,-95
8207,-94
8208,-91
8209,-87
8210,-86
8211,-86
8212,-84
8213,-83
8214,-80
8215,-79
8216,-77
8217,-72
8218,-64
8219,-63
8220,-61
8221,-59
8222,-56
8223,-59
8224,-58
8225,-55
8226,-52
8227,-47
8228,-46
8229,-46
8230,-50
8231,-49
8232,-46
8233,-50
8234,-49
8235,-47
8236,-48
8237,-49
8238,-47
8239,-51
8240,-47
8241,-50
8242,-56
8243,-51
8244,-52
8245,-51
8246,-51
8247,-53
8248,-56
8249,-56
8250,-61
8251,-63
8252,-61
8253,-56
8254,-59
8255,-55
8256,-58
8257,-57
8258,-60
8259,-56
8260,-61
8261,-61
8262,-63
8263,-55
8264,-56
8265,-58
8266,-55
8267,-58
8268,-64
8269,-59
8270,-62
8271,-58
8272,-53
8273,-55
8274,-58
8275,-59
8276,-58
8277,-59
8278,-62
8279,-60
8280,-60
8281,-58
8282,-57
8283,-55
8284,-55
8285,-57
8286,-59
8287,-61
8288,-62
8289,-60
8290,-59
8291,-54
8292,-55
8293,-53
8294,-50
8295,-50
8296,-47
8297,-44
8298,-42
8299,-36
8300,-34
8301,-32
8302,-24
8303,-26
8304,-27
8305,-25
8306,-24
8307,-23
8308,-29
8309,-31
8310,-32
8311,-39
8312,-40
8313,-43
8314,-44
8315,-46
8316,-49
8317,-47
8318,-50
8319,-51
8320,-59
8321,-61
8322,-67
8323,-73
8324,-77
8325,-78
8326,-80
8327,-79
8328,-80
8329,-78
8330,-74
8331,-80
8332,-81
8333,-80
8334,-86
8335,-82
8336,-80
8337,-79
8338,-78
8339,-77
8340,-79
8341,-80
8342,-82
8343,-80
8344,-75
8345,-76
8346,-70
8347,-67
8348,-61
8349,-49
8350,-29
8351,-7
8352,27
8353,72
8354,114
8355,142
8356,151
8357,153
8358,147
8359,132
8360,115
8361,100
8362,87
8363,84
8364,86
8365,84
8366,80
8367,72
8368,52
8369,31
8370,16
8371,19
8372,41
8373,56
8374,56
8375,37
8376,-4
8377,-39
8378,-66
8379,-71
8380,-76
8381,-77
8382,-80
8383,-88
8384,-97
8385,-96
8386,-97
8387,-100
8388,-102
8389,-102
8390,-104
8391,-100
8392,-100
8393,-96
8394,-98
8395,-101
8396,-96
8397,-101
8398,-107
8399,-105
8400,-103
8401,-105
8402,-101
8403,-101
8404,-104
8405,-109
8406,-109
8407,-109
8408,-113
8409,-108
8410,-110
8411,-111
8412,-113
8413,-116
8414,-117
8415,-117
8416,-118
8417,-119
8418,-118
8419,-120
8420,-118
8421,-117
8422,-122
8423,-118
8424,-125
8425,-123
8426,-123
8427,-124
8428,-124
8429,-119
8430,-119
8431,-120
8432,-126
8433,-125
8434,-126
8435,-124
8436,-124
8437,-122
8438,-121
8439,-115
8440,-118
8441,-114
8442,-116
8443,-114
8444,-111
8445,-105
8446,-103
8447,-98
8448,-94
8449,-93
8450,-96
8451,-90
8452,-91
8453,-88
8454,-87
8455,-81
8456,-78
8457,-76
8458,-77
8459,-80
8460,-78
8461,-80
8462,-80
8463,-73
8464,-73
8465,-75
8466,-72
8467,-77
8468,-76
8469,-80
8470,-80
8471,-80
8472,-78
8473,-79
8474,-77
8475,-78
8476,-81
8477,-81
8478,-82
8479,-79
8480,-82
8481,-83
8482,-80
8483,-76
8484,-79
8485,-84
8486,-80
8487,-81
8488,-82
8489,-85
8490,-80
8491,-78
8492,-78
8493,-77
8494,-78
8495,-78
8496,-76
8497,-79
8498,-80
8499,-77
8500,-73
8501,-70
8502,-76
8503,-75
8504,-73
8505,-72
8506,-75
8507,-75
8508,-74
8509,-69
8510,-74
8511,-67
8512,-75
8513,-73
8514,-69
8515,-73
8516,-69
8517,-67
8518,-68
8519,-64
8520,-66
8521,-61
8522,-63
8523,-61
8524,-60
8525,-57
8526,-54
8527,-45
8528,-45
8529,-40
8530,-40
8531,-34
8532,-35
8533,-36
8534,-29
8535,-31
8536,-34
8537,-37
8538,-38
8539,-42
8540,-45
8541,-50
8542,-51
8543,-54
8544,-55
8545,-57
8546,-58
8547,-60
8548,-63
8549,-68
8550,-74
8551,-76
8552,-77
8553,-80
8554,-79
8555,-79
8556,-82
8557,-76
8558,-79
8559,-84
8560,-86
8561,-82
8562,-82
8563,-81
8564,-77
8565,-77
8566,-75
8567,-80
8568,-80
8569,-79
8570,-80
8571,-78
8572,-79
8573,-74
8574,-70
8575,-67
8576,-56
8577,-44
8578,-25
8579,8
8580,47
8581,89
8582,122
8583,146
8584,158
8585,159
8586,153
8587,140
8588,123
8589,105
8590,105
8591,101
8592,102
8593,105
8594,103
8595,91
8596,72
8597,55
8598,51
8599,62
8600,85
8601,99
8602,90
8603,54
8604,9
8605,-28
8606,-48
8607,-56
8608,-59
8609,-61
8610,-73
8611,-74
8612,-80
8613,-84
8614,-82
8615,-84
8616,-82
8617,-83
8618,-81
8619,-84
8620,-79
8621,-76
8622,-78
8623,-77
8624,-80
8625,-82
8626,-85
8627,-82
8628,-81
8629,-82
8630,-81
8631,-84
8632,-85
8633,-88
8634,-87
8635,-88
8636,-91
8637,-90
8638,-89
8639,-90
8640,-97
8641,-96
8642,-95
8643,-102
8644,-101
8645,-100
8646,-103
8647,-104
8648,-99
8649,-104
8650,-106
8651,-109
8652,-110
8653,-113
8654,-111
8655,-111
8656,-110
8657,-109
8658,-112
8659,-113
8660,-112
8661,-112
8662,-110
8663,-113
8664,-107
8665,-106
8666,-102
8667,-104
8668,-105
8669,-106
8670,-104
8671,-102
8672,-98
8673,-95
8674,-88
8675,-84
8676,-83
8677,-82
8678,-77
8679,-74
8680,-72
8681,-67
8682,-64
8683,-58
8684,-56
8685,-56
8686,-60
8687,-58
8688,-56
8689,-55
8690,-57
8691,-51
8692,-53
8693,-54
8694,-54
8695,-52
8696,-57
8697,-57
8698,-58
8699,-58
8700,-59
8701,-58
8702,-58
8703,-61
8704,-64
8705,-65
8706,-65
8707,-67
8708,-67
8709,-65
8710,-64
8711,-61
8712,-62
8713,-67
8714,-65
8715,-67
8716,-70
8717,-67
8718,-69
8719,-68
8720,-69
8721,-66
8722,-72
8723,-68
8724,-70
8725,-67
8726,-68
8727,-65
8728,-64
8729,-62
8730,-63
8731,-64
8732,-67
8733,-64
8734,-64
8735,-61
8736,-65
8737,-63
8738,-63
8739,-62
8740,-63
8741,-65
8742,-65
8743,-64
8744,-63
8745,-64
8746,-64
8747,-59
8748,-62
8749,-61
8750,-64
8751,-64
8752,-63
8753,-60
8754,-52
8755,-53
8756,-45
8757,-41
8758,-38
8759,-38
8760,-34
8761,-29
8762,-28
8763,-25
8764,-23
8765,-24
8766,-24
8767,-28
8768,-31
8769,-34
8770,-42
8771,-43
8772,-44
8773,-45
8774,-45
8775,-45
8776,-47
8777,-55
8778,-61
8779,-62
8780,-65
8781,-72
8782,-73
8783,-75
8784,-77
8785,-76
8786,-79
8787,-82
8788,-82
8789,-84
8790,-85
8791,-84
8792,-79
8793,-82
8794,-83
8795,-83
8796,-83
8797,-84
8798,-85
8799,-84
8800,-83
8801,-78
8802,-80
8803,-79
8804,-80
8805,-81
8806,-74
8807,-71
8808,-56
8809,-34
8810,0
8811,42
8812,85
8813,119
8814,134
8815,141
8816,139
8817,131
8818,116
8819,99
8820,94
8821,89
8822,93
8823,92
8824,95
8825,90
8826,80
8827,63
8828,49
8829,43
8830,59
8831,82
8832,90
8833,78
8834,40
8835,-3
8836,-41
8837,-64
8838,-67
8839,-72
8840,-75
8841,-87
8842,-97
8843,-103
8844,-107
8845,-109
8846,-108
8847,-104
8848,-105
8849,-102
8850,-104
8851,-105
8852,-105
8853,-109
8854,-106
8855,-106
8856,-102
8857,-105
8858,-106
8859,-103
8860,-108
8861,-109
8862,-111
8863,-112
8864,-116
8865,-114
8866,-111
8867,-115
8868,-116
8869,-119
8870,-120
8871,-126
8872,-128
8873,-127
8874,-123
8875,-121
8876,-121
8877,-125
8878,-128
8879,-133
8880,-136
8881,-138
8882,-135
8883,-133
8884,-137
8885,-130
8886,-133
8887,-137
8888,-140
8889,-138
8890,-139
8891,-137
8892,-137
8893,-133
8894,-134
8895,-130
8896,-135
8897,-133
8898,-134
8899,-134
8900,-129
8901,-131
8902,-124
8903,-120
8904,-119
8905,-113
8906,-111
8907,-113
8908,-112
8909,-106
8910,-102
8911,-99
8912,-92
8913,-91
8914,-93
8915,-88
8916,-87
8917,-86
8918,-89
8919,-87
8920,-82
8921,-81
8922,-80
8923,-81
8924,-84
8925,-85
8926,-85
8927,-90
8928,-86
8929,-84
8930,-84
8931,-87
8932,-84
8933,-84
8934,-92
8935,-90
8936,-94
8937,-92
8938,-91
8939,-92
8940,-92
8941,-90
8942,-93
8943,-92
8944,-96
8945,-96
8946,-100
8947,-98
8948,-99
8949,-95
8950,-94
8951,-96
8952,-98
8953,-100
8954,-103
8955,-101
8956,-98
8957,-94
8958,-91
8959,-95
8960,-93
8961,-97
8962,-98
8963,-94
8964,-94
8965,-94
8966,-96
8967,-90
8968,-90
8969,-92
8970,-96
8971,-99
8972,-95
8973,-95
8974,-97
8975,-93
8976,-92
8977,-91
8978,-93
8979,-92
8980,-96
8981,-97
8982,-95
8983,-95
8984,-95
8985,-93
8986,-88
8987,-85
8988,-82
8989,-77
8990,-75
8991,-73
8992,-68
8993,-64
8994,-61
8995,-59
8996,-57
8997,-55
8998,-54
8999,-56
9000,-53
9001,-58
9002,-61
9003,-66
9004,-71
9005,-75
9006,-78
9007,-81
9008,-87
9009,-85
9010,-90
9011,-92
9012,-93
9013,-94
9014,-98
9015,-105
9016,-113
9017,-117
9018,-119
9019,-118
9020,-117
9021,-119
9022,-113
9023,-121
9024,-121
9025,-125
9026,-124
9027,-124
9028,-126
9029,-123
9030,-123
9031,-125
9032,-125
9033,-123
9034,-128
9035,-128
9036,-128
9037,-128
9038,-125
9039,-123
9040,-112
9041,-105
9042,-93
9043,-70
9044,-34
9045,6
9046,52
9047,81
9048,99
9049,98
9050,99
9051,81
9052,63
9053,45
9054,31
9055,24
9056,22
9057,29
9058,32
9059,33
9060,21
9061,0
9062,-20
9063,-30
9064,-25
9065,0
9066,19
9067,9
9068,-26
9069,-63
9070,-104
9071,-119
9072,-124
9073,-127
9074,-133
9075,-146
9076,-149
9077,-156
9078,-154
9079,-157
9080,-155
9081,-159
9082,-160
9083,-159
9084,-160
9085,-158
9086,-159
9087,-160
9088,-157
9089,-157
9090,-162
9091,-166
9092,-163
9093,-165
9094,-170
9095,-169
9096,-167
9097,-169
9098,-164
9099,-169
9100,-169
9101,-172
9102,-169
9103,-172
9104,-176
9105,-172
9106,-174
9107,-176
9108,-182
9109,-183
9110,-185
9111,-183
9112,-183
9113,-181
9114,-182
9115,-181
9116,-181
9117,-185
9118,-188
9119,-188
9120,-187
9121,-187
9122,-185
9123,-185
9124,-185
9125,-184
9126,-182
9127,-186
9128,-187
9129,-186
9130,-184
9131,-183
9132,-179
9133,-176
9134,-174
9135,-173
9136,-174
9137,-174
9138,-166
9139,-168
9140,-163
9141,-160
9142,-156
9143,-158
9144,-152
9145,-152
9146,-147
9147,-146
9148,-144
9149,-142
9150,-141
9151,-139
9152,-142
9153,-138
9154,-139
9155,-138
9156,-139
9157,-140
9158,-137
9159,-135
9160,-134
9161,-134
9162,-135
9163,-132
9164,-131
9165,-133
9166,-128
9167,-130
9168,-129
9169,-130
9170,-129
9171,-126
9172,-128
9173,-126
9174,-125
9175,-125
9176,-123
9177,-121
9178,-120
9179,-124
9180,-123
9181,-121
9182,-117
9183,-123
9184,-116
9185,-117
9186,-113
9187,-112
9188,-111
9189,-112
9190,-110
9191,-109
9192,-108
9193,-105
9194,-108
9195,-105
9196,-104
9197,-105
9198,-100
9199,-100
9200,-103
9201,-104
9202,-102
9203,-93
9204,-98
9205,-98
9206,-99
9207,-96
9208,-97
9209,-97
9210,-96
9211,-94
9212,-90
9213,-84
9214,-85
9215,-76
9216,-74
9217,-71
9218,-68
9219,-70
9220,-61
9221,-59
9222,-54
9223,-51
9224,-50
9225,-46
9226,-49
9227,-55
9228,-56
9229,-61
9230,-63
9231,-61
9232,-66
9233,-69
9234,-66
9235,-70
9236,-74
9237,-72
9238,-78
9239,-78
9240,-85
9241,-89
9242,-90
9243,-92
9244,-89
9245,-98
9246,-94
9247,-94
9248,-94
9249,-93
9250,-94
9251,-92
9252,-90
9253,-90
9254,-88
9255,-92
9256,-92
9257,-90
9258,-86
9259,-87
9260,-85
9261,-88
9262,-86
9263,-81
9264,-84
9265,-83
9266,-76
9267,-64
9268,-51
9269,-24
9270,13
9271,61
9272,103
9273,139
9274,163
9275,169
9276,176
9277,172
9278,156
9279,137
9280,123
9281,119
9282,114
9283,115
9284,122
9285,117
9286,110
9287,91
9288,72
9289,66
9290,74
9291,91
9292,98
9293,88
9294,53
9295,13
9296,-25
9297,-49
9298,-62
9299,-69
9300,-75
9301,-88
9302,-96
9303,-101
9304,-100
9305,-103
9306,-101
9307,-102
9308,-99
9309,-101
9310,-102
9311,-100
9312,-102
9313,-101
9314,-98
9315,-100
9316,-102
9317,-100
9318,-102
9319,-103
9320,-104
9321,-107
9322,-106
9323,-105
9324,-107
9325,-106
9326,-109
9327,-110
9328,-114
9329,-115
9330,-116
9331,-117
9332,-117
9333,-115
9334,-117
9335,-117
9336,-122
9337,-118
9338,-122
9339,-124
9340,-124
9341,-126
9342,-128
9343,-128
9344,-126
9345,-129
9346,-128
9347,-134
9348,-131
9349,-131
9350,-126
9351,-128
9352,-130
9353,-128
9354,-124
9355,-128
9356,-131
9357,-127
9358,-124
9359,-124
9360,-121
9361,-120
9362,-118
9363,-118
9364,-116
9365,-115
9366,-111
9367,-108
9368,-107
9369,-105
9370,-98
9371,-97
9372,-92
9373,-91
9374,-88
9375,-88
9376,-89
9377,-86
9378,-79
9379,-81
9380,-82
9381,-77
9382,-78
9383,-80
9384,-79
9385,-83
9386,-84
9387,-84
9388,-79
9389,-81
9390,-83
9391,-82
9392,-83
9393,-88
9394,-89
9395,-86
9396,-83
9397,-86
9398,-85
9399,-89
9400,-89
9401,-92
9402,-92
9403,-93
9404,-92
9405,-89
9406,-91
9407,-89
9408,-90
9409,-86
9410,-91
9411,-88
9412,-89
9413,-88
9414,-84
9415,-85
9416,-85
9417,-84
9418,-86
9419,-86
9420,-89
9421,-84
9422,-83
9423,-82
9424,-82
9425,-84
9426,-82
9427,-80
9428,-81
9429,-82
9430,-83
9431,-83
9432,-77
9433,-78
9434,-75
9435,-73
9436,-78
9437,-74
9438,-76
9439,-77
9440,-77
9441,-75
9442,-71
9443,-65
9444,-58
9445,-59
9446,-54
9447,-53
9448,-46
9449,-41
9450,-37
9451,-31
9452,-26
9453,-22
9454,-26
9455,-32
9456,-53
9457,-56
9458,-60
9459,-61
9460,-64
9461,-61
9462,-66
9463,-66
9464,-65
9465,-70
9466,-76
9467,-78
9468,-77
9469,-81
9470,-80
9471,-86
9472,-89
9473,-93
9474,-92
9475,-95
9476,-93
9477,-95
9478,-90
9479,-87
9480,-88
9481,-89
9482,-94
9483,-97
9484,-96
9485,-95
9486,-91
9487,-87
9488,-82
9489,-84
9490,-91
9491,-92
9492,-99
9493,-98
9494,-93
9495,-85
9496,-76
9497,-55
9498,-33
9499,3
9500,52
9501,103
9502,135
9503,153
9504,160
9505,161
9506,149
9507,132
9508,110
9509,101
9510,95
9511,92
9512,97
9513,102
9514,104
9515,94
9516,79
9517,59
9518,46
9519,54
9520,73
9521,94
9522,91
9523,56
9524,6
9525,-28
9526,-61
9527,-74
9528,-80
9529,-84
9530,-93
9531,-108
9532,-117
9533,-119
9534,-114
9535,-111
9536,-108
9537,-112
9538,-110
9539,-114
9540,-113
9541,-116
9542,-116
9543,-117
9544,-116
9545,-114
9546,-113
9547,-113
9548,-114
9549,-116
9550,-124
9551,-124
9552,-123
9553,-123
9554,-123
9555,-126
9556,-127
9557,-126
9558,-129
9559,-131
9560,-132
9561,-133
9562,-138
9563,-134
9564,-135
9565,-137
9566,-137
9567,-143
9568,-142
9569,-144
9570,-149
9571,-147
9572,-151
9573,-152
9574,-152
9575,-151
9576,-152
9577,-156
9578,-152
9579,-153
9580,-153
9581,-151
9582,-149
9583,-143
9584,-148
9585,-148
9586,-149
9587,-149
9588,-145
9589,-143
9590,-139
9591,-138
9592,-137
9593,-133
9594,-132
9595,-128
9596,-131
9597,-117
9598,-115
9599,-109
9600,-107
9601,-104
9602,-106
9603,-107
9604,-105
9605,-108
9606,-100
9607,-96
9608,-99
9609,-97
9610,-96
9611,-100
9612,-99
9613,-100
9614,-101
9615,-101
9616,-102
9617,-100
9618,-101
9619,-103
9620,-99
9621,-106
9622,-108
9623,-106
9624,-106
9625,-111
9626,-109
9627,-108
9628,-111
9629,-109
9630,-108
9631,-116
9632,-117
9633,-116
9634,-116
9635,-115
9636,-112
9637,-113
9638,-118
9639,-118
9640,-116
9641,-117
9642,-117
9643,-115
9644,-114
9645,-113
9646,-112
9647,-109
9648,-114
9649,-114
9650,-120
9651,-119
9652,-118
9653,-118
9654,-113
9655,-114
9656,-112
9657,-115
9658,-118
9659,-117
9660,-115
9661,-113
9662,-111
9663,-107
9664,-109
9665,-110
9666,-112
9667,-109
9668,-111
9669,-114
9670,-109
9671,-104
9672,-98
9673,-93
9674,-91
9675,-84
9676,-82
9677,-83
9678,-81
9679,-74
9680,-70
9681,-64
9682,-60
9683,-55
9684,-50
9685,-53
9686,-61
9687,-66
9688,-75
9689,-81
9690,-87
9691,-83
9692,-85
9693,-85
9694,-94
9695,-98
9696,-99
9697,-100
9698,-104
9699,-103
9700,-105
9701,-109
9702,-115
9703,-116
9704,-121
9705,-119
9706,-117
9707,-117
9708,-111
9709,-110
9710,-111
9711,-112
9712,-120
9713,-120
9714,-123
9715,-121
9716,-120
9717,-116
9718,-116
9719,-112
9720,-110
9721,-111
9722,-112
9723,-109
9724,-106
9725,-102
9726,-89
9727,-76
9728,-52
9729,-12
9730,36
9731,84
9732,116
9733,137
9734,141
9735,136
9736,125
9737,107
9738,89
9739,77
9740,73
9741,75
9742,76
9743,84
9744,84
9745,69
9746,53
9747,41
9748,38
9749,47
9750,63
9751,80
9752,70
9753,34
9754,-17
9755,-56
9756,-73
9757,-82
9758,-86
9759,-94
9760,-108
9761,-120
9762,-123
9763,-121
9764,-117
9765,-118
9766,-118
9767,-117
9768,-115
9769,-123
9770,-120
9771,-122
9772,-118
9773,-116
9774,-116
9775,-118
9776,-119
9777,-121
9778,-125
9779,-125
9780,-122
9781,-122
9782,-125
9783,-127
9784,-136
9785,-136
9786,-136
9787,-138
9788,-137
9789,-137
9790,-139
9791,-138
9792,-142
9793,-141
9794,-145
9795,-148
9796,-150
9797,-146
9798,-148
9799,-145
9800,-146
9801,-148
9802,-154
9803,-154
9804,-158
9805,-161
9806,-161
9807,-160
9808,-160
9809,-162
9810,-159
9811,-156
9812,-154
9813,-150
9814,-151
9815,-154
9816,-153
9817,-149
9818,-143
9819,-143
9820,-141
9821,-139
9822,-142
9823,-137
9824,-135
9825,-135
9826,-128
9827,-126
9828,-121
9829,-119
9830,-115
9831,-114
9832,-115
9833,-117
9834,-117
9835,-118
9836,-117
9837,-111
9838,-106
9839,-108
9840,-110
9841,-115
9842,-113
9843,-113
9844,-114
9845,-114
9846,-118
9847,-116
9848,-111
9849,-113
9850,-116
9851,-118
9852,-123
9853,-127
9854,-127
9855,-126
9856,-125
9857,-123
9858,-128
9859,-131
9860,-132
9861,-129
9862,-132
9863,-134
9864,-136
9865,-142
9866,-143
9867,-142
9868,-144
9869,-142
9870,-142
9871,-141
9872,-141
9873,-141
9874,-140
9875,-140
9876,-138
9877,-137
9878,-141
9879,-143
9880,-145
9881,-139
9882,-134
9883,-135
9884,-135
9885,-137
9886,-139
9887,-141
9888,-148
9889,-148
9890,-147
9891,-143
9892,-141
9893,-142
9894,-144
9895,-144
9896,-151
9897,-149
9898,-145
9899,-138
9900,-137
9901,-133
9902,-127
9903,-125
9904,-120
9905,-121
9906,-117
9907,-112
9908,-111
9909,-106
9910,-102
9911,-94
9912,-96
9913,-95
9914,-94
9915,-94
9916,-98
9917,-101
9918,-104
9919,-103
9920,-105
9921,-107
9922,-114
9923,-117
9924,-119
9925,-121
9926,-131
9927,-131
9928,-132
9929,-135
9930,-138
9931,-137
9932,-144
9933,-150
9934,-148
9935,-150
9936,-147
9937,-145
9938,-149
9939,-148
9940,-149
9941,-143
9942,-143
9943,-144
9944,-148
9945,-148
9946,-146
9947,-149
9948,-142
9949,-147
9950,-146
9951,-143
9952,-140
9953,-132
9954,-125
9955,-118
9956,-110
9957,-92
9958,-66
9959,-30
9960,8
9961,54
9962,90
9963,115
9964,126
9965,121
9966,116
9967,98
9968,72
9969,53
9970,47
9971,46
9972,45
9973,45
9974,37
9975,23
9976,1
9977,-17
9978,-33
9979,-21
9980,0
9981,16
9982,10
9983,-22
9984,-70
9985,-101
9986,-118
9987,-119
9988,-124
9989,-126
9990,-135
9991,-138
9992,-145
9993,-145
9994,-146
9995,-143
9996,-145
9997,-149
9998,-151
9999,-152
10000,-145
10001,-140
10002,-138
10003,-138
10004,-139
10005,-139
10006,-141
10007,-142
10008,-144
10009,-145
10010,-148
10011,-146
10012,-149
10013,-149
10014,-152
10015,-154
10016,-159
10017,-159
10018,-156
10019,-151
10020,-148
10021,-144
10022,-147
10023,-150
10024,-155
10025,-155
10026,-159
10027,-160
10028,-162
10029,-165
10030,-163
10031,-164
10032,-165
10033,-166
10034,-170
10035,-171
10036,-171
10037,-174
10038,-170
10039,-165
10040,-163
10041,-163
10042,-164
10043,-164
10044,-163
10045,-161
10046,-157
10047,-152
10048,-149
10049,-152
10050,-151
10051,-146
10052,-146
10053,-142
10054,-140
10055,-133
10056,-130
10057,-125
10058,-124
10059,-121
10060,-120
10061,-117
10062,-115
10063,-116
10064,-113
10065,-112
10066,-113
10067,-116
10068,-111
10069,-114
10070,-121
10071,-121
10072,-117
10073,-115
10074,-111
10075,-112
10076,-114
10077,-113
10078,-114
10079,-112
10080,-111
10081,-113
10082,-119
10083,-120
10084,-118
10085,-119
10086,-119
10087,-122
10088,-121
10089,-124
10090,-127
10091,-127
10092,-123
10093,-127
10094,-126
10095,-122
10096,-123
10097,-125
10098,-128
10099,-128
10100,-135
10101,-122
10102,-121
10103,-122
10104,-122
10105,-121
10106,-123
10107,-122
10108,-122
10109,-119
10110,-119
10111,-117
10112,-111
10113,-117
10114,-114
10115,-117
10116,-119
10117,-118
10118,-118
10119,-118
10120,-115
10121,-111
10122,-110
10123,-115
10124,-114
10125,-117
10126,-117
10127,-114
10128,-110
10129,-108
10130,-103
10131,-102
10132,-105
10133,-117
10134,-128
10135,-128
10136,-106
10137,-86
10138,-71
10139,-63
10140,-63
10141,-60
10142,-56
10143,-60
10144,-64
10145,-71
10146,-69
10147,-72
10148,-71
10149,-76
10150,-76
10151,-77
10152,-80
10153,-85
10154,-88
10155,-88
10156,-93
10157,-92
10158,-95
10159,-100
10160,-105
10161,-106
10162,-107
10163,-107
10164,-110
10165,-106
10166,-107
10167,-106
10168,-105
10169,-101
10170,-103
10171,-107
10172,-103
10173,-106
10174,-107
10175,-99
10176,-97
10177,-101
10178,-95
10179,-96
10180,-96
10181,-92
10182,-89
10183,-82
10184,-76
10185,-61
10186,-44
10187,-16
10188,25
10189,71
10190,114
10191,150
10192,172
10193,183
10194,184
10195,177
10196,159
10197,137
10198,119
10199,114
10200,109
10201,113
10202,118
10203,114
10204,97
10205,77
10206,57
10207,53
10208,63
10209,79
10210,85
10211,64
10212,23
10213,-23
10214,-54
10215,-71
10216,-79
10217,-82
10218,-87
10219,-98
10220,-109
10221,-108
10222,-102
10223,-103
10224,-104
10225,-103
10226,-104
10227,-106
10228,-105
10229,-105
10230,-105
10231,-104
10232,-104
10233,-102
10234,-104
10235,-107
10236,-105
10237,-109
10238,-109
10239,-106
10240,-106
10241,-110
10242,-106
10243,-109
10244,-114
10245,-115
10246,-115
10247,-114
10248,-117
10249,-116
10250,-116
10251,-118
10252,-122
10253,-123
10254,-127
10255,-123
10256,-127
10257,-125
10258,-126
10259,-124
10260,-126
10261,-128
10262,-127
10263,-133
10264,-136
10265,-137
10266,-134
10267,-132
10268,-130
10269,-133
10270,-136
10271,-135
10272,-135
10273,-140
10274,-134
10275,-135
10276,-131
10277,-128
10278,-125
10279,-119
10280,-120
10281,-123
10282,-120
10283,-117
10284,-114
10285,-108
10286,-106
10287,-104
10288,-101
10289,-100
10290,-101
10291,-98
10292,-95
10293,-91
10294,-89
10295,-86
10296,-84
10297,-85
10298,-89
10299,-91
10300,-91
10301,-90
10302,-88
10303,-89
10304,-86
10305,-87
10306,-90
10307,-90
10308,-92
10309,-92
10310,-95
10311,-97
10312,-98
10313,-98
10314,-99
10315,-95
10316,-101
10317,-103
10318,-101
10319,-103
10320,-104
10321,-103
10322,-101
10323,-100
10324,-103
10325,-102
10326,-105
10327,-108
10328,-102
10329,-103
10330,-105
10331,-103
10332,-98
10333,-99
10334,-100
10335,-101
10336,-103
10337,-99
10338,-98
10339,-99
10340,-95
10341,-94
10342,-97
10343,-96
10344,-98
10345,-97
10346,-94
10347,-96
10348,-93
10349,-89
10350,-94
10351,-89
10352,-87
10353,-92
10354,-94
10355,-91
10356,-89
10357,-84
10358,-77
10359,-69
10360,-68
10361,-67
10362,-63
10363,-56
10364,-56
10365,-54
10366,-51
10367,-46
10368,-42
10369,-35
10370,-36
10371,-34
10372,-40
10373,-46
10374,-51
10375,-51
10376,-49
10377,-52
10378,-55
10379,-58
10380,-57
10381,-64
10382,-68
10383,-70
10384,-70
10385,-72
10386,-70
10387,-79
10388,-84
10389,-86
10390,-84
10391,-88
10392,-87
10393,-87
10394,-83
10395,-83
10396,-80
10397,-80
10398,-88
10399,-85
10400,-83
10401,-84
10402,-85
10403,-83
10404,-80
10405,-78
10406,-77
10407,-79
10408,-77
10409,-75
10410,-72
10411,-65
10412,-56
10413,-37
10414,-12
10415,25
10416,69
10417,115
10418,154
10419,179
10420,187
10421,187
10422,181
10423,166
10424,144
10425,125
10426,120
10427,114
10428,114
10429,123
10430,124
10431,111
10432,99
10433,84
10434,72
10435,73
10436,95
10437,108
10438,102
10439,69
10440,22
10441,-19
10442,-39
10443,-47
10444,-54
10445,-59
10446,-66
10447,-78
10448,-83
10449,-84
10450,-84
10451,-82
10452,-78
10453,-81
10454,-77
10455,-84
10456,-82
10457,-85
10458,-82
10459,-81
10460,-76
10461,-79
10462,-82
10463,-84
10464,-85
10465,-89
10466,-91
10467,-88
10468,-89
10469,-86
10470,-88
10471,-89
10472,-93
10473,-98
10474,-99
10475,-99
10476,-101
10477,-102
10478,-102
10479,-103
10480,-104
10481,-105
10482,-111
10483,-111
10484,-112
10485,-116
10486,-112
10487,-113
10488,-112
10489,-112
10490,-112
10491,-116
10492,-115
10493,-116
10494,-118
10495,-121
10496,-115
10497,-118
10498,-118
10499,-121
10500,-118
10501,-120
10502,-119
10503,-116
10504,-113
10505,-109
10506,-107
10507,-102
10508,-104
10509,-99
10510,-99
10511,-97
10512,-95
10513,-93
10514,-84
10515,-80
10516,-81
10517,-76
10518,-77
10519,-71
10520,-72
10521,-70
10522,-65
10523,-62
10524,-61
10525,-62
10526,-62
10527,-60
10528,-61
10529,-63
10530,-58
10531,-61
10532,-64
10533,-65
10534,-64
10535,-68
10536,-70
10537,-73
10538,-76
10539,-75
10540,-78
10541,-75
10542,-71
10543,-72
10544,-76
10545,-79
10546,-82
10547,-80
10548,-79
10549,-81
10550,-77
10551,-80
10552,-79
10553,-77
10554,-78
10555,-86
10556,-88
10557,-86
10558,-85
10559,-84
10560,-81
10561,-83
10562,-76
10563,-79
10564,-81
10565,-81
10566,-77
10567,-77
10568,-77
10569,-75
10570,-70
10571,-72
10572,-73
10573,-76
10574,-78
10575,-79
10576,-80
10577,-77
10578,-74
10579,-74
10580,-73
10581,-72
10582,-76
10583,-79
10584,-76
10585,-76
10586,-68
10587,-63
10588,-58
10589,-56
10590,-51
10591,-50
10592,-46
10593,-47
10594,-43
10595,-36
10596,-33
10597,-27
10598,-26
10599,-23
10600,-24
10601,-32
10602,-37
10603,-42
10604,-43
10605,-50
10606,-53
10607,-56
10608,-52
10609,-55
10610,-61
10611,-63
10612,-64
10613,-69
10614,-72
10615,-79
10616,-80
10617,-83
10618,-87
10619,-89
10620,-88
10621,-86
10622,-86
10623,-81
10624,-78
10625,-77
10626,-75
10627,-69
10628,-63
10629,-63
10630,-60
10631,-64
10632,-67
10633,-69
10634,-67
10635,-70
10636,-75
10637,-74
10638,-74
10639,-70
10640,-59
10641,-50
10642,-30
10643,-8
10644,33
10645,85
10646,135
10647,171
10648,187
10649,192
10650,191
10651,178
10652,163
10653,141
10654,129
10655,122
10656,123
10657,126
10658,127
10659,125
10660,119
10661,104
10662,83
10663,76
10664,78
10665,102
10666,112
10667,101
10668,65
10669,13
10670,-27
10671,-48
10672,-56
10673,-61
10674,-66
10675,-80
10676,-92
10677,-92
10678,-91
10679,-90
10680,-91
10681,-89
10682,-90
10683,-93
10684,-89
10685,-94
10686,-92
10687,-95
10688,-95
10689,-93
10690,-89
10691,-90
10692,-96
10693,-96
10694,-94
10695,-100
10696,-100
10697,-99
10698,-99
10699,-102
10700,-102
10701,-104
10702,-104
10703,-105
10704,-108
10705,-104
10706,-109
10707,-105
10708,-105
10709,-111
10710,-111
10711,-113
10712,-113
10713,-115
10714,-118
10715,-119
10716,-122
10717,-120
10718,-122
10719,-121
10720,-120
10721,-120
10722,-125
10723,-121
10724,-119
10725,-116
10726,-117
10727,-115
10728,-112
10729,-119
10730,-121
10731,-118
10732,-120
10733,-116
10734,-110
10735,-113
10736,-111
10737,-108
10738,-107
10739,-107
10740,-102
10741,-94
10742,-90
10743,-85
10744,-84
10745,-77
10746,-79
10747,-76
10748,-77
10749,-78
10750,-75
10751,-68
10752,-67
10753,-64
10754,-66
10755,-67
10756,-74
10757,-70
10758,-69
10759,-69
10760,-70
10761,-70
10762,-73
10763,-68
10764,-73
10765,-69
10766,-72
10767,-68
10768,-67
10769,-65
10770,-67
10771,-68
10772,-71
10773,-75
10774,-80
10775,-92
10776,-102
10777,-104
10778,-100
10779,-96
10780,-92
10781,-95
10782,-92
10783,-90
10784,-92
10785,-90
10786,-96
10787,-84
10788,-76
10789,-75
10790,-70
10791,-72
10792,-73
10793,-68
10794,-54
10795,-42
10796,-38
10797,-51
10798,-78
10799,-104
10800,-111
10801,-110
10802,-108
10803,-108
10804,-102
10805,-97
10806,-93
10807,-88
10808,-82
10809,-80
10810,-79
10811,-82
10812,-83
10813,-85
10814,-79
10815,-78
10816,-70
10817,-64
10818,-61
10819,-56
10820,-56
10821,-49
10822,-39
10823,-26
10824,-18
10825,-23
10826,-38
10827,-32
10828,-21
10829,-13
10830,-21
10831,-44
10832,-76
10833,-90
10834,-89
10835,-80
10836,-76
10837,-71
10838,-76
10839,-79
10840,-79
10841,-75
10842,-78
10843,-86
10844,-84
10845,-91
10846,-92
10847,-96
10848,-98
10849,-99
10850,-94
10851,-89
10852,-85
10853,-86
10854,-93
10855,-95
10856,-97
10857,-97
10858,-92
10859,-94
10860,-108
10861,-111
10862,-103
10863,-102
10864,-99
10865,-94
10866,-96
10867,-92
10868,-89
10869,-84
10870,-73
10871,-58
10872,-27
10873,14
10874,69
10875,124
10876,161
10877,179
10878,185
10879,178
10880,168
10881,154
10882,136
10883,118
10884,110
10885,105
10886,105
10887,112
10888,107
10889,96
10890,80
10891,62
10892,51
10893,60
10894,79
10895,92
10896,74
10897,35
10898,-15
10899,-55
10900,-74
10901,-78
10902,-85
10903,-92
10904,-106
10905,-115
10906,-115
10907,-113
10908,-112
10909,-116
10910,-119
10911,-124
10912,-128
10913,-126
10914,-124
10915,-124
10916,-120
10917,-120
10918,-120
10919,-117
10920,-120
10921,-123
10922,-125
10923,-127
10924,-128
10925,-128
10926,-127
10927,-128
10928,-128
10929,-130
10930,-132
10931,-138
10932,-137
10933,-142
10934,-140
10935,-142
10936,-140
10937,-143
10938,-143
10939,-148
10940,-151
10941,-153
10942,-151
10943,-151
10944,-148
10945,-151
10946,-151
10947,-152
10948,-153
10949,-156
10950,-159
10951,-153
10952,-153
10953,-152
10954,-154
10955,-151
10956,-153
10957,-152
10958,-150
10959,-152
10960,-149
10961,-147
10962,-144
10963,-142
10964,-144
10965,-137
10966,-138
10967,-138
10968,-132
10969,-128
10970,-127
10971,-120
10972,-118
10973,-117
10974,-116
10975,-113
10976,-114
10977,-111
10978,-105
10979,-104
10980,-102
10981,-100
10982,-97
10983,-101
10984,-101
10985,-102
10986,-100
10987,-103
10988,-99
10989,-99
10990,-102
10991,-100
10992,-102
10993,-103
10994,-106
10995,-106
10996,-108
10997,-111
10998,-113
10999,-109
11000,-111
11001,-111
11002,-115
11003,-114
11004,-114
11005,-117
11006,-116
11007,-115
11008,-117
11009,-115
11010,-114
11011,-121
11012,-122
11013,-123
11014,-122
11015,-120
11016,-119
11017,-122
11018,-118
11019,-118
11020,-119
11021,-124
11022,-121
11023,-119
11024,-119
11025,-116
11026,-112
11027,-114
11028,-115
11029,-118
11030,-117
11031,-117
11032,-117
11033,-116
11034,-115
11035,-113
11036,-112
11037,-112
11038,-113
11039,-113
11040,-113
11041,-118
11042,-114
11043,-111
11044,-115
11045,-111
11046,-109
11047,-108
11048,-105
11049,-99
11050,-96
11051,-93
11052,-85
11053,-78
11054,-79
11055,-80
11056,-75
11057,-77
11058,-74
11059,-73
11060,-76
11061,-76
11062,-78
11063,-84
11064,-87
11065,-90
11066,-96
11067,-103
11068,-105
11069,-103
11070,-105
11071,-107
11072,-115
11073,-114
11074,-122
11075,-128
11076,-131
11077,-133
11078,-137
11079,-135
11080,-133
11081,-135
11082,-137
11083,-136
11084,-135
11085,-137
11086,-134
11087,-137
11088,-134
11089,-131
11090,-130
11091,-134
11092,-131
11093,-132
11094,-136
11095,-134
11096,-132
11097,-126
11098,-122
11099,-122
11100,-119
11101,-105
11102,-88
11103,-52
11104,-7
11105,53
11106,104
11107,133
11108,140
11109,138
11110,130
11111,108
11112,87
11113,69
11114,58
11115,55
11116,59
11117,62
11118,67
11119,59
11120,40
11121,16
11122,1
11123,7
11124,28
11125,48
11126,51
11127,17
11128,-31
11129,-76
11130,-105
11131,-115
11132,-119
11133,-121
11134,-132
11135,-138
11136,-149
11137,-154
11138,-151
11139,-151
11140,-154
11141,-157
11142,-155
11143,-150
11144,-152
11145,-148
11146,-147
11147,-148
11148,-147
11149,-150
11150,-154
11151,-155
11152,-153
11153,-152
11154,-153
11155,-154
11156,-158
11157,-158
11158,-161
11159,-166
11160,-166
11161,-170
11162,-163
11163,-165
11164,-166
11165,-169
11166,-170
11167,-174
11168,-176
11169,-179
11170,-180
11171,-180
11172,-178
11173,-179
11174,-181
11175,-180
11176,-181
11177,-185
11178,-186
11179,-187
11180,-182
11181,-183
11182,-179
11183,-178
11184,-179
11185,-181
11186,-182
11187,-180
11188,-181
11189,-178
11190,-174
11191,-171
11192,-172
11193,-168
11194,-170
11195,-173
11196,-171
11197,-166
11198,-158
11199,-154
11200,-149
11201,-149
11202,-150
11203,-149
11204,-148
11205,-150
11206,-144
11207,-137
11208,-136
11209,-133
11210,-133
11211,-135
11212,-141
11213,-136
11214,-137
11215,-132
11216,-134
11217,-129
11218,-132
11219,-137
11220,-136
11221,-141
11222,-140
11223,-141
11224,-143
11225,-140
11226,-138
11227,-141
11228,-142
11229,-144
11230,-149
11231,-149
11232,-149
11233,-148
11234,-153
11235,-154
11236,-150
11237,-151
11238,-150
11239,-156
11240,-157
11241,-154
11242,-154
11243,-155
11244,-150
11245,-150
11246,-150
11247,-147
11248,-152
11249,-150
11250,-149
11251,-153
11252,-146
11253,-143
11254,-144
11255,-145
11256,-144
11257,-143
11258,-152
11259,-148
11260,-148
11261,-142
11262,-135
11263,-131
11264,-125
11265,-131
11266,-134
11267,-145
11268,-144
11269,-142
11270,-141
11271,-138
11272,-137
11273,-137
11274,-138
11275,-137
11276,-140
11277,-136
11278,-135
11279,-127
11280,-120
11281,-119
11282,-112
11283,-111
11284,-110
11285,-109
11286,-106
11287,-101
11288,-98
11289,-94
11290,-86
11291,-89
11292,-95
11293,-100
11294,-101
11295,-108
11296,-109
11297,-110
11298,-112
11299,-115
11300,-114
11301,-116
11302,-120
11303,-126
11304,-126
11305,-134
11306,-135
11307,-137
11308,-142
11309,-139
11310,-140
11311,-141
11312,-145
11313,-148
11314,-146
11315,-147
11316,-141
11317,-144
11318,-143
11319,-144
11320,-141
11321,-144
11322,-147
11323,-145
11324,-145
11325,-143
11326,-137
11327,-139
11328,-140
11329,-141
11330,-135
11331,-129
11332,-120
11333,-101
11334,-69
11335,-22
11336,37
11337,88
11338,123
11339,145
11340,151
11341,147
11342,128
11343,107
11344,84
11345,69
11346,60
11347,62
11348,61
11349,60
11350,49
11351,31
11352,7
11353,-12
11354,-7
11355,16
11356,35
11357,38
11358,6
11359,-43
11360,-90
11361,-118
11362,-127
11363,-121
11364,-127
11365,-137
11366,-152
11367,-162
11368,-162
11369,-161
11370,-159
11371,-159
11372,-158
11373,-153
11374,-154
11375,-156
11376,-160
11377,-162
11378,-162
11379,-163
11380,-159
11381,-158
11382,-157
11383,-156
11384,-156
11385,-164
11386,-166
11387,-164
11388,-165
11389,-168
11390,-163
11391,-165
11392,-165
11393,-170
11394,-173
11395,-174
11396,-175
11397,-173
11398,-174
11399,-177
11400,-175
11401,-177
11402,-177
11403,-180
11404,-183
11405,-189
11406,-186
11407,-183
11408,-187
11409,-188
11410,-184
11411,-184
11412,-190
11413,-188
11414,-188
11415,-189
11416,-187
11417,-181
11418,-181
11419,-180
11420,-182
11421,-183
11422,-185
11423,-183
11424,-177
11425,-171
11426,-170
11427,-169
11428,-167
11429,-166
11430,-164
11431,-162
11432,-162
11433,-158
11434,-155
11435,-150
11436,-144
11437,-136
11438,-135
11439,-134
11440,-128
11441,-132
11442,-128
11443,-122
11444,-123
11445,-121
11446,-121
11447,-118
11448,-122
11449,-120
11450,-123
11451,-119
11452,-121
11453,-118
11454,-114
11455,-116
11456,-119
11457,-120
11458,-123
11459,-124
11460,-124
11461,-124
11462,-123
11463,-121
11464,-119
11465,-124
11466,-130
11467,-129
11468,-130
11469,-128
11470,-124
11471,-125
11472,-124
11473,-126
11474,-122
11475,-126
11476,-130
11477,-128
11478,-126
11479,-125
11480,-121
11481,-118
11482,-123
11483,-122
11484,-123
11485,-120
11486,-121
11487,-120
11488,-120
11489,-120
11490,-114
11491,-112
11492,-119
11493,-119
11494,-121
11495,-118
11496,-122
11497,-113
11498,-114
11499,-116
11500,-115
11501,-111
11502,-116
11503,-115
11504,-116
11505,-112
11506,-111
11507,-102
11508,-97
11509,-89
11510,-91
11511,-88
11512,-84
11513,-82
11514,-74
11515,-74
11516,-69
11517,-64
11518,-64
11519,-67
11520,-72
11521,-77
11522,-82
11523,-82
11524,-85
11525,-86
11526,-85
11527,-85
11528,-92
11529,-96
11530,-100
11531,-102
11532,-104
11533,-109
11534,-112
11535,-116
11536,-123
11537,-122
11538,-120
11539,-126
11540,-125
11541,-125
11542,-124
11543,-120
11544,-118
11545,-118
11546,-122
11547,-120
11548,-123
11549,-125
11550,-123
11551,-116
11552,-119
11553,-115
11554,-116
11555,-118
11556,-121
11557,-119
11558,-118
11559,-115
11560,-105
11561,-91
11562,-66
11563,-28
11564,26
11565,85
11566,132
11567,161
11568,170
11569,170
11570,158
11571,140
11572,113
11573,94
11574,83
11575,81
11576,84
11577,88
11578,85
11579,71
11580,49
11581,34
11582,27
11583,51
11584,70
11585,81
11586,62
11587,12
11588,-42
11589,-76
11590,-95
11591,-103
11592,-105
11593,-115
11594,-128
11595,-137
11596,-139
11597,-138
11598,-137
11599,-135
11600,-134
11601,-135
11602,-139
11603,-140
11604,-136
11605,-137
11606,-138
11607,-135
11608,-128
11609,-132
11610,-133
11611,-133
11612,-141
11613,-141
11614,-140
11615,-139
11616,-139
11617,-138
11618,-137
11619,-142
11620,-146
11621,-144
11622,-149
11623,-147
11624,-149
11625,-153
11626,-156
11627,-157
11628,-155
11629,-159
11630,-159
11631,-162
11632,-164
11633,-165
11634,-160
11635,-159
11636,-163
11637,-159
11638,-165
11639,-165
11640,-163
11641,-166
11642,-163
11643,-163
11644,-163
11645,-159
